pc_time_s,seq_id,module_id,status,tx_drops,Raw RH,Raw LH,Env RH,Env LH,Tau RH,Tau LH
7.260983,64902,0xF0,0x00,0,1.57900012,1.57100010,0.06955629,0.07913615,0.12641910,0.15085752
7.260983,64904,0xF0,0x00,0,1.58000004,1.56700003,0.06957518,0.07919691,0.12646730,0.15101252
7.260983,64906,0xF0,0x00,0,1.57900012,1.57200003,0.06960189,0.07922392,0.12653542,0.15108141
7.260983,64908,0xF0,0x00,0,1.57800007,1.56700003,0.06964355,0.07927981,0.12664171,0.15122400
7.260983,64910,0xF0,0x00,0,1.58400011,1.57300007,0.06963331,0.07929265,0.12661558,0.15125675
7.260983,64912,0xF0,0x00,0,1.57800007,1.56800008,0.06965081,0.07932851,0.12666021,0.15134825
7.260983,64914,0xF0,0x00,0,1.58000004,1.57300007,0.06966566,0.07932793,0.12669811,0.15134676
7.260983,64916,0xF0,0x00,0,1.58500004,1.57300007,0.06962770,0.07930384,0.12660128,0.15128529
7.260983,64918,0xF0,0x00,0,1.57900012,1.57500005,0.06961719,0.07924443,0.12657446,0.15113376
7.260983,64920,0xF0,0x00,0,1.58000004,1.57500005,0.06961431,0.07916287,0.12656711,0.15092568
7.270986,64922,0xF0,0x00,0,1.58100009,1.57000005,0.06960618,0.07911877,0.12654638,0.15081318
7.270986,64924,0xF0,0x00,0,1.58100009,1.57200003,0.06959477,0.07907891,0.12651728,0.15071151
7.270986,64926,0xF0,0x00,0,1.57700002,1.57000005,0.06962210,0.07906258,0.12658699,0.15066984
7.270986,64928,0xF0,0x00,0,1.58200002,1.57200003,0.06962320,0.07904121,0.12658980,0.15061533
7.270986,64930,0xF0,0x00,0,1.58300006,1.57000005,0.06959718,0.07903720,0.12652344,0.15060510
7.270986,64932,0xF0,0x00,0,1.58000004,1.57700002,0.06958450,0.07897309,0.12649107,0.15044156
7.270986,64934,0xF0,0x00,0,1.58000004,1.56200004,0.06958055,0.07902370,0.12648101,0.15057068
7.270986,64936,0xF0,0x00,0,1.58000004,1.57000005,0.06958228,0.07906631,0.12648539,0.15067935
7.270986,64938,0xF0,0x00,0,1.58400011,1.57000005,0.06954689,0.07910331,0.12639511,0.15077373
7.270986,64940,0xF0,0x00,0,1.58600008,1.57500005,0.06946754,0.07908537,0.12619269,0.15072799
7.280938,64942,0xF0,0x00,0,1.58300006,1.57200003,0.06939120,0.07906274,0.12599795,0.15067025
7.280938,64944,0xF0,0x00,0,1.58100009,1.56400013,0.06933796,0.07911882,0.12586214,0.15081331
7.280938,64946,0xF0,0x00,0,1.58100009,1.57000005,0.06930016,0.07916398,0.12576571,0.15092851
7.280938,64948,0xF0,0x00,0,1.58000004,1.56300008,0.06928290,0.07927296,0.12572169,0.15120652
7.280938,64950,0xF0,0x00,0,1.58200002,1.57200003,0.06925870,0.07933030,0.12565994,0.15135281
7.280938,64952,0xF0,0x00,0,1.57900012,1.56700003,0.06926082,0.07940469,0.12566535,0.15154257
7.280938,64954,0xF0,0x00,0,1.58400011,1.57000005,0.06922896,0.07945875,0.12558410,0.15168048
7.280938,64956,0xF0,0x00,0,1.58300006,1.56900012,0.06918570,0.07950933,0.12547371,0.15180951
7.280938,64958,0xF0,0x00,0,1.57900012,1.56900012,0.06917626,0.07955716,0.12544966,0.15193152
7.280938,64960,0xF0,0x00,0,1.58200002,1.57300007,0.06915820,0.07956196,0.12540357,0.15194376
7.290917,64962,0xF0,0x00,0,1.58100009,1.56800008,0.06914493,0.07958990,0.12536971,0.15201503
7.290917,64964,0xF0,0x00,0,1.58100009,1.56700003,0.06913488,0.07964267,0.12534408,0.15214966
7.290917,64966,0xF0,0x00,0,1.58100009,1.57200003,0.06912703,0.07965998,0.12532406,0.15219381
7.290917,64968,0xF0,0x00,0,1.58300006,1.57100010,0.06910029,0.07966442,0.12525585,0.15220514
7.290917,64970,0xF0,0x00,0,1.57200003,1.57300007,0.06917372,0.07964014,0.12544316,0.15214321
7.290917,64972,0xF0,0x00,0,1.58000004,1.56900012,0.06922951,0.07963832,0.12558547,0.15213859
7.290917,64974,0xF0,0x00,0,1.58100009,1.57200003,0.06926317,0.07962046,0.12567134,0.15209301
7.290917,64976,0xF0,0x00,0,1.58000004,1.56900012,0.06929239,0.07962298,0.12574589,0.15209945
7.290917,64978,0xF0,0x00,0,1.58200002,1.56600010,0.06929807,0.07966921,0.12576039,0.15221739
7.290917,64980,0xF0,0x00,0,1.57500005,1.56600010,0.06935984,0.07974317,0.12591796,0.15240604
7.300911,64982,0xF0,0x00,0,1.57900012,1.57100010,0.06941640,0.07978331,0.12606224,0.15250845
7.300911,64984,0xF0,0x00,0,1.57900012,1.56700003,0.06946903,0.07984199,0.12619652,0.15265813
7.300911,64986,0xF0,0x00,0,1.57700002,1.57500005,0.06953897,0.07983050,0.12637492,0.15262884
7.300911,64988,0xF0,0x00,0,1.57200003,1.58000004,0.06967030,0.07972293,0.12670994,0.15235442
7.300911,64990,0xF0,0x00,0,1.58200002,1.57300007,0.06973802,0.07962579,0.12688269,0.15210660
7.300911,64992,0xF0,0x00,0,1.58000004,1.57200003,0.06978438,0.07954653,0.12700097,0.15190442
7.300911,64994,0xF0,0x00,0,1.57800007,1.56900012,0.06983687,0.07951021,0.12713487,0.15181176
7.300911,64996,0xF0,0x00,0,1.58300006,1.56600010,0.06984183,0.07953252,0.12714753,0.15186867
7.300911,64998,0xF0,0x00,0,1.58200002,1.57200003,0.06982627,0.07953130,0.12710783,0.15186554
7.300911,65000,0xF0,0x00,0,1.58400011,1.57100010,0.06977724,0.07952509,0.12698275,0.15184972
7.310856,65002,0xF0,0x00,0,1.58300006,1.56900012,0.06971730,0.07953612,0.12682986,0.15187785
7.310856,65004,0xF0,0x00,0,1.58300006,1.56900012,0.06965095,0.07955814,0.12666059,0.15193404
7.310856,65006,0xF0,0x00,0,1.58100009,1.56900012,0.06960150,0.07958704,0.12653443,0.15200776
7.310856,65008,0xF0,0x00,0,1.58700013,1.56900012,0.06950233,0.07962009,0.12628146,0.15209205
7.310856,65010,0xF0,0x00,0,1.58500004,1.56900012,0.06939247,0.07965546,0.12600121,0.15218230
7.310856,65012,0xF0,0x00,0,1.59000003,1.56600010,0.06922589,0.07972255,0.12557626,0.15235345
7.310856,65014,0xF0,0x00,0,1.58500004,1.56600010,0.06907535,0.07980942,0.12519222,0.15257505
7.310856,65016,0xF0,0x00,0,1.58300006,1.57100010,0.06895708,0.07985722,0.12489050,0.15269700
7.310856,65018,0xF0,0x00,0,1.58200002,1.57100010,0.06887101,0.07987933,0.12467094,0.15275338
7.310856,65020,0xF0,0x00,0,1.58000004,1.57200003,0.06882697,0.07987444,0.12455860,0.15274091
7.320846,65022,0xF0,0x00,0,1.58400011,1.57300007,0.06876976,0.07984200,0.12441266,0.15265816
7.320846,65024,0xF0,0x00,0,1.58300006,1.56700003,0.06871481,0.07985324,0.12427248,0.15268685
7.320846,65026,0xF0,0x00,0,1.58900011,1.56700003,0.06860075,0.07989256,0.12398151,0.15278715
7.320846,65028,0xF0,0x00,0,1.58300006,1.57200003,0.06851085,0.07989865,0.12375215,0.15280268
7.320846,65030,0xF0,0x00,0,1.58700013,1.57000005,0.06839669,0.07990360,0.12346093,0.15281531
7.320846,65032,0xF0,0x00,0,1.57700002,1.57200003,0.06836993,0.07988741,0.12339269,0.15277399
7.320846,65034,0xF0,0x00,0,1.58300006,1.57200003,0.06833871,0.07985772,0.12331302,0.15269828
7.320846,65036,0xF0,0x00,0,1.58200002,1.57700002,0.06831511,0.07976869,0.12325283,0.15247115
7.320846,65038,0xF0,0x00,0,1.57900012,1.56800008,0.06832724,0.07973399,0.12328378,0.15238263
7.320846,65040,0xF0,0x00,0,1.58200002,1.56700003,0.06833173,0.07974488,0.12329523,0.15241040
7.330859,65042,0xF0,0x00,0,1.58100009,1.57100010,0.06834144,0.07974431,0.12332000,0.15240894
7.330859,65044,0xF0,0x00,0,1.58200002,1.57200003,0.06834423,0.07972617,0.12332711,0.15236267
7.330859,65046,0xF0,0x00,0,1.58700013,1.56800008,0.06829157,0.07973763,0.12319277,0.15239191
7.330859,65048,0xF0,0x00,0,1.58300006,1.56900012,0.06824443,0.07975788,0.12307252,0.15244359
7.330859,65050,0xF0,0x00,0,1.57700002,1.57600009,0.06826247,0.07971229,0.12311853,0.15232725
7.330859,65052,0xF0,0x00,0,1.58200002,1.56900012,0.06827143,0.07969598,0.12314140,0.15228568
7.330859,65054,0xF0,0x00,0,1.58000004,1.56800008,0.06829482,0.07970894,0.12320108,0.15231873
7.330859,65056,0xF0,0x00,0,1.57800007,1.57000005,0.06834767,0.07972027,0.12333590,0.15234762
7.330859,65058,0xF0,0x00,0,1.57800007,1.56700003,0.06841898,0.07976099,0.12351780,0.15245152
7.330859,65060,0xF0,0x00,0,1.57800007,1.57600009,0.06850147,0.07972857,0.12372825,0.15236878
7.340778,65062,0xF0,0x00,0,1.57700002,1.56900012,0.06860054,0.07972060,0.12398095,0.15234847
7.340778,65064,0xF0,0x00,0,1.57500005,1.57500005,0.06872965,0.07966736,0.12431034,0.15221265
7.340778,65066,0xF0,0x00,0,1.58100009,1.57000005,0.06881572,0.07963639,0.12452989,0.15213366
7.340778,65068,0xF0,0x00,0,1.57900012,1.56500006,0.06889350,0.07967106,0.12472831,0.15222210
7.340778,65070,0xF0,0x00,0,1.58000004,1.57100010,0.06895496,0.07968660,0.12488510,0.15226172
7.340778,65072,0xF0,0x00,0,1.57600009,1.56900012,0.06904602,0.07971000,0.12511739,0.15232143
7.340778,65074,0xF0,0x00,0,1.58100009,1.57100010,0.06910430,0.07971786,0.12526608,0.15234149
7.340778,65076,0xF0,0x00,0,1.58000004,1.57100010,0.06915103,0.07971562,0.12538528,0.15233575
7.340778,65078,0xF0,0x00,0,1.57600009,1.56900012,0.06923059,0.07972725,0.12558822,0.15236545
7.340778,65080,0xF0,0x00,0,1.58100009,1.56500006,0.06927957,0.07978848,0.12571318,0.15252164
7.350772,65082,0xF0,0x00,0,1.58100009,1.57200003,0.06930832,0.07980977,0.12578653,0.15257594
7.350772,65084,0xF0,0x00,0,1.58000004,1.57000005,0.06933392,0.07982544,0.12585182,0.15261592
7.350772,65086,0xF0,0x00,0,1.57900012,1.57000005,0.06936741,0.07983733,0.12593727,0.15264624
7.350772,65088,0xF0,0x00,0,1.58200002,1.56600010,0.06937508,0.07988741,0.12595685,0.15277401
7.350772,65090,0xF0,0x00,0,1.58000004,1.56800008,0.06938640,0.07994125,0.12598571,0.15291135
7.350772,65092,0xF0,0x00,0,1.58200002,1.57100010,0.06937958,0.07996640,0.12596831,0.15297550
7.350772,65094,0xF0,0x00,0,1.58000004,1.57300007,0.06938150,0.07995240,0.12597321,0.15293978
7.350772,65096,0xF0,0x00,0,1.57900012,1.57600009,0.06939922,0.07988271,0.12601842,0.15276203
7.350772,65098,0xF0,0x00,0,1.58100009,1.57300007,0.06940659,0.07980838,0.12603723,0.15257238
7.350772,65100,0xF0,0x00,0,1.58200002,1.57300007,0.06939702,0.07973180,0.12601280,0.15237704
7.360699,65102,0xF0,0x00,0,1.58300006,1.57100010,0.06936642,0.07967494,0.12593475,0.15223198
7.360699,65104,0xF0,0x00,0,1.57900012,1.57100010,0.06936332,0.07963137,0.12592684,0.15212083
7.360699,65106,0xF0,0x00,0,1.57900012,1.57400012,0.06937799,0.07956626,0.12596425,0.15195473
7.360699,65108,0xF0,0x00,0,1.57800007,1.57300007,0.06941417,0.07949810,0.12605655,0.15178086
7.360699,65110,0xF0,0x00,0,1.58000004,1.57600009,0.06944348,0.07939810,0.12613133,0.15152575
7.360699,65112,0xF0,0x00,0,1.58200002,1.57200003,0.06944768,0.07931933,0.12614204,0.15132481
7.360699,65114,0xF0,0x00,0,1.58300006,1.57100010,0.06942546,0.07926525,0.12608534,0.15118687
7.360699,65116,0xF0,0x00,0,1.57800007,1.56800008,0.06943735,0.07925823,0.12611568,0.15116894
7.360699,65118,0xF0,0x00,0,1.58100009,1.57400012,0.06944056,0.07922049,0.12612388,0.15107268
7.370708,65120,0xF0,0x00,0,1.58100009,1.57100010,0.06943814,0.07919390,0.12611771,0.15100484
7.370708,65122,0xF0,0x00,0,1.58600008,1.57200003,0.06938118,0.07916457,0.12597239,0.15093002
7.370708,65124,0xF0,0x00,0,1.58000004,1.57100010,0.06935073,0.07914397,0.12589471,0.15087748
7.370708,65126,0xF0,0x00,0,1.57600009,1.57200003,0.06937845,0.07911903,0.12596543,0.15081385
7.370708,65128,0xF0,0x00,0,1.58000004,1.56700003,0.06940267,0.07914247,0.12602723,0.15087365
7.370708,65130,0xF0,0x00,0,1.57700002,1.57100010,0.06945495,0.07915615,0.12616059,0.15090853
7.370708,65132,0xF0,0x00,0,1.58100009,1.57300007,0.06948405,0.07914300,0.12623481,0.15087500
7.370708,65134,0xF0,0x00,0,1.58100009,1.56600010,0.06949788,0.07918400,0.12627012,0.15097959
7.370708,65136,0xF0,0x00,0,1.58400011,1.56800008,0.06947117,0.07923915,0.12620197,0.15112029
7.370708,65138,0xF0,0x00,0,1.57900012,1.56600010,0.06946951,0.07932324,0.12619773,0.15133479
7.380113,65140,0xF0,0x00,0,1.58300006,1.57000005,0.06944328,0.07938439,0.12613082,0.15149078
7.380113,65142,0xF0,0x00,0,1.57500005,1.57200003,0.06948297,0.07940973,0.12623206,0.15155545
7.380113,65144,0xF0,0x00,0,1.57900012,1.57300007,0.06952403,0.07940154,0.12633683,0.15153454
7.380113,65146,0xF0,0x00,0,1.58300006,1.57200003,0.06952481,0.07938197,0.12633879,0.15148459
7.380113,65148,0xF0,0x00,0,1.57800007,1.57200003,0.06955053,0.07935525,0.12640440,0.15141647
7.380113,65150,0xF0,0x00,0,1.58000004,1.57300007,0.06957170,0.07931402,0.12645842,0.15131128
7.380113,65152,0xF0,0x00,0,1.58300006,1.56800008,0.06955916,0.07931478,0.12642643,0.15131322
7.380113,65154,0xF0,0x00,0,1.58000004,1.57200003,0.06955557,0.07930188,0.12641726,0.15128030
7.380113,65156,0xF0,0x00,0,1.58100009,1.56600010,0.06954758,0.07934142,0.12639688,0.15138116
7.380113,65158,0xF0,0x00,0,1.58100009,1.57200003,0.06953684,0.07935327,0.12636949,0.15141138
7.411869,65160,0xF0,0x00,0,1.58200002,1.57600009,0.06951426,0.07930636,0.12631188,0.15129174
7.411869,65162,0xF0,0x00,0,1.57900012,1.57100010,0.06951483,0.07927298,0.12631333,0.15120657
7.411869,65164,0xF0,0x00,0,1.58200002,1.57200003,0.06949975,0.07923847,0.12627488,0.15111853
7.411869,65166,0xF0,0x00,0,1.57600009,1.57000005,0.06953588,0.07922396,0.12636705,0.15108153
7.411869,65168,0xF0,0x00,0,1.58200002,1.57000005,0.06954354,0.07922251,0.12638658,0.15107782
7.411869,65170,0xF0,0x00,0,1.58200002,1.57400012,0.06953276,0.07918873,0.12635908,0.15099166
7.411869,65172,0xF0,0x00,0,1.58000004,1.56900012,0.06953056,0.07918540,0.12635347,0.15098315
7.411869,65174,0xF0,0x00,0,1.57800007,1.57200003,0.06955431,0.07917117,0.12641405,0.15094686
7.411869,65176,0xF0,0x00,0,1.58200002,1.56900012,0.06955379,0.07918061,0.12641272,0.15097095
7.411869,65178,0xF0,0x00,0,1.57800007,1.57200003,0.06957837,0.07917468,0.12647544,0.15095583
7.420354,65180,0xF0,0x00,0,1.57800007,1.57300007,0.06961891,0.07914869,0.12657885,0.15088952
7.420354,65182,0xF0,0x00,0,1.57900012,1.56400013,0.06965914,0.07920174,0.12668146,0.15102483
7.420354,65184,0xF0,0x00,0,1.57700002,1.56800008,0.06971913,0.07926447,0.12683451,0.15118487
7.420354,65186,0xF0,0x00,0,1.57800007,1.56900012,0.06978107,0.07932263,0.12699252,0.15133323
7.420354,65188,0xF0,0x00,0,1.58000004,1.57000005,0.06982327,0.07936706,0.12710018,0.15144658
7.420354,65190,0xF0,0x00,0,1.57800007,1.57600009,0.06987268,0.07934103,0.12722622,0.15138018
7.420354,65192,0xF0,0x00,0,1.57700002,1.56500006,0.06993642,0.07938190,0.12738882,0.15148443
7.420354,65194,0xF0,0x00,0,1.58000004,1.57200003,0.06997819,0.07939418,0.12749539,0.15151577
7.420354,65196,0xF0,0x00,0,1.57900012,1.56800008,0.07001556,0.07942867,0.12759072,0.15160373
7.420354,65198,0xF0,0x00,0,1.58100009,1.56900012,0.07002932,0.07946692,0.12762581,0.15170132
7.424813,65200,0xF0,0x00,0,1.58100009,1.56800008,0.07002771,0.07951741,0.12762171,0.15183012
7.424813,65202,0xF0,0x00,0,1.57900012,1.57100010,0.07003658,0.07954472,0.12764433,0.15189978
7.424813,65204,0xF0,0x00,0,1.57900012,1.56700003,0.07005211,0.07959754,0.12768395,0.15203454
7.424813,65206,0xF0,0x00,0,1.58100009,1.57200003,0.07005141,0.07961535,0.12768216,0.15207997
7.424813,65208,0xF0,0x00,0,1.58200002,1.56700003,0.07003006,0.07966132,0.12762769,0.15219724
7.424813,65210,0xF0,0x00,0,1.58100009,1.57100010,0.07000578,0.07968424,0.12756577,0.15225571
7.424813,65212,0xF0,0x00,0,1.58100009,1.56900012,0.06997987,0.07971244,0.12749967,0.15232764
7.424813,65214,0xF0,0x00,0,1.57800007,1.57300007,0.06998374,0.07970299,0.12750952,0.15230355
7.424813,65216,0xF0,0x00,0,1.58300006,1.57100010,0.06995583,0.07968973,0.12743832,0.15226971
7.424813,65218,0xF0,0x00,0,1.57700002,1.56700003,0.06996883,0.07971490,0.12747152,0.15233393
7.429003,65220,0xF0,0x00,0,1.58500004,1.56700003,0.06992660,0.07976461,0.12736377,0.15246075
7.429003,65222,0xF0,0x00,0,1.58300006,1.56500006,0.06986953,0.07985003,0.12721819,0.15267865
7.429003,65224,0xF0,0x00,0,1.57900012,1.57300007,0.06984422,0.07987610,0.12715364,0.15274516
7.429003,65226,0xF0,0x00,0,1.58100009,1.57000005,0.06981929,0.07989419,0.12709004,0.15279128
7.429003,65228,0xF0,0x00,0,1.57900012,1.57400012,0.06981523,0.07986618,0.12707967,0.15271984
7.429003,65230,0xF0,0x00,0,1.58200002,1.56900012,0.06979412,0.07985966,0.12702581,0.15270321
7.429003,65232,0xF0,0x00,0,1.57700002,1.56900012,0.06981316,0.07986706,0.12707439,0.15272211
7.429003,65234,0xF0,0x00,0,1.58200002,1.56800008,0.06980697,0.07989357,0.12705860,0.15278973
7.429003,65236,0xF0,0x00,0,1.58000004,1.57000005,0.06980494,0.07991176,0.12705342,0.15283613
7.429003,65238,0xF0,0x00,0,1.58300006,1.57300007,0.06977506,0.07989383,0.12697719,0.15279038
7.432675,65240,0xF0,0x00,0,1.57900012,1.57000005,0.06976826,0.07988334,0.12695985,0.15276361
7.432675,65242,0xF0,0x00,0,1.58100009,1.56900012,0.06975604,0.07988795,0.12692867,0.15277538
7.432675,65244,0xF0,0x00,0,1.58400011,1.56400013,0.06970988,0.07995319,0.12681092,0.15294182
7.432675,65246,0xF0,0x00,0,1.58100009,1.57100010,0.06967287,0.07998558,0.12671649,0.15302444
7.432675,65248,0xF0,0x00,0,1.58000004,1.56800008,0.06965232,0.08002700,0.12666407,0.15313010
7.432675,65250,0xF0,0x00,0,1.58400011,1.57000005,0.06960185,0.08005345,0.12653533,0.15319757
7.432675,65252,0xF0,0x00,0,1.58200002,1.57100010,0.06955296,0.08005978,0.12641060,0.15321372
7.432675,65254,0xF0,0x00,0,1.58000004,1.57000005,0.06952597,0.08006325,0.12634176,0.15322259
7.432675,65256,0xF0,0x00,0,1.58300006,1.57200003,0.06948282,0.08004447,0.12623167,0.15317467
7.432675,65258,0xF0,0x00,0,1.58200002,1.56400013,0.06943987,0.08009303,0.12612210,0.15329856
7.439997,65260,0xF0,0x00,0,1.58500004,1.56500006,0.06936692,0.08017436,0.12593600,0.15350603
7.439997,65262,0xF0,0x00,0,1.58300006,1.56600010,0.06929573,0.08026581,0.12575442,0.15373932
7.439997,65264,0xF0,0x00,0,1.58300006,1.57400012,0.06922641,0.08028135,0.12557758,0.15377896
7.439997,65266,0xF0,0x00,0,1.58100009,1.56700003,0.06917938,0.08031908,0.12545760,0.15387522
7.439997,65268,0xF0,0x00,0,1.58400011,1.57300007,0.06911664,0.08030961,0.12529755,0.15385103
7.439997,65270,0xF0,0x00,0,1.58100009,1.56700003,0.06907497,0.08033090,0.12519124,0.15390536
7.439997,65272,0xF0,0x00,0,1.58300006,1.57000005,0.06902693,0.08034127,0.12506871,0.15393181
7.439997,65274,0xF0,0x00,0,1.58300006,1.57400012,0.06897529,0.08030373,0.12493697,0.15383604
7.439997,65276,0xF0,0x00,0,1.58100009,1.57000005,0.06894222,0.08027641,0.12485260,0.15376633
7.439997,65278,0xF0,0x00,0,1.58300006,1.57000005,0.06890109,0.08025596,0.12474768,0.15371418
7.449900,65280,0xF0,0x00,0,1.58500004,1.57000005,0.06883480,0.08024016,0.12457858,0.15367387
7.449900,65282,0xF0,0x00,0,1.58000004,1.57300007,0.06880391,0.08019695,0.12449976,0.15356365
7.449900,65284,0xF0,0x00,0,1.58100009,1.57400012,0.06878597,0.08012631,0.12445399,0.15338343
7.449900,65286,0xF0,0x00,0,1.57800007,1.57600009,0.06880714,0.08001830,0.12450801,0.15310791
7.449900,65288,0xF0,0x00,0,1.57500005,1.57000005,0.06888390,0.07994843,0.12470381,0.15292968
7.449900,65290,0xF0,0x00,0,1.58200002,1.56700003,0.06892441,0.07993444,0.12480717,0.15289398
7.449900,65292,0xF0,0x00,0,1.57800007,1.57000005,0.06898189,0.07992608,0.12495381,0.15287265
7.449900,65294,0xF0,0x00,0,1.57800007,1.56900012,0.06904973,0.07993162,0.12512687,0.15288679
7.449900,65296,0xF0,0x00,0,1.57800007,1.56600010,0.06912356,0.07997666,0.12531520,0.15300167
7.449900,65298,0xF0,0x00,0,1.57800007,1.57200003,0.06920050,0.07998557,0.12551148,0.15302441
7.459919,65300,0xF0,0x00,0,1.57900012,1.57100010,0.06926848,0.07998127,0.12568490,0.15301345
7.459919,65302,0xF0,0x00,0,1.58300006,1.57200003,0.06928923,0.07995832,0.12573783,0.15295489
7.459919,65304,0xF0,0x00,0,1.58000004,1.57300007,0.06930986,0.07991336,0.12579046,0.15284021
7.459919,65306,0xF0,0x00,0,1.57800007,1.57100010,0.06935058,0.07987505,0.12589434,0.15274248
7.459919,65308,0xF0,0x00,0,1.58000004,1.56800008,0.06938346,0.07987198,0.12597823,0.15273465
7.459919,65310,0xF0,0x00,0,1.58300006,1.57700002,0.06938040,0.07979998,0.12597041,0.15255097
7.459919,65312,0xF0,0x00,0,1.57900012,1.57100010,0.06939492,0.07974537,0.12600747,0.15241167
7.459919,65314,0xF0,0x00,0,1.58000004,1.57000005,0.06941046,0.07971273,0.12604709,0.15232840
7.459919,65316,0xF0,0x00,0,1.57600009,1.56900012,0.06946724,0.07970479,0.12619194,0.15230814
7.459919,65318,0xF0,0x00,0,1.58000004,1.56900012,0.06950931,0.07971286,0.12629925,0.15232873
7.469915,65320,0xF0,0x00,0,1.57900012,1.56900012,0.06955163,0.07973118,0.12640722,0.15237546
7.469915,65322,0xF0,0x00,0,1.57900012,1.57300007,0.06959370,0.07971517,0.12651454,0.15233462
7.469915,65324,0xF0,0x00,0,1.57500005,1.57200003,0.06967592,0.07968736,0.12672429,0.15226367
7.469915,65326,0xF0,0x00,0,1.58000004,1.57100010,0.06973228,0.07966242,0.12686805,0.15220004
7.469915,65328,0xF0,0x00,0,1.57400012,1.56500006,0.06983250,0.07970071,0.12712371,0.15229774
7.469915,65330,0xF0,0x00,0,1.58300006,1.56800008,0.06986830,0.07974884,0.12721504,0.15242051
7.469915,65332,0xF0,0x00,0,1.57800007,1.57300007,0.06991312,0.07975189,0.12732939,0.15242828
7.469915,65334,0xF0,0x00,0,1.57600009,1.57500005,0.06998368,0.07970543,0.12750937,0.15230978
7.469915,65336,0xF0,0x00,0,1.58100009,1.56500006,0.07001918,0.07972941,0.12759995,0.15237094
7.469915,65338,0xF0,0x00,0,1.57300007,1.57800007,0.07011321,0.07966612,0.12783983,0.15220949
7.479854,65340,0xF0,0x00,0,1.58500004,1.57400012,0.07012179,0.07958794,0.12786171,0.15201004
7.479854,65342,0xF0,0x00,0,1.57900012,1.56900012,0.07013626,0.07955188,0.12789863,0.15191805
7.479854,65344,0xF0,0x00,0,1.57800007,1.57200003,0.07016459,0.07951280,0.12797089,0.15181836
7.479854,65346,0xF0,0x00,0,1.57900012,1.57300007,0.07019138,0.07946198,0.12803924,0.15168872
7.479854,65348,0xF0,0x00,0,1.57900012,1.57200003,0.07021691,0.07941429,0.12810436,0.15156707
7.479854,65350,0xF0,0x00,0,1.57700002,1.56600010,0.07026173,0.07943024,0.12821870,0.15160777
7.479854,65352,0xF0,0x00,0,1.58000004,1.57300007,0.07028799,0.07941578,0.12828568,0.15157086
7.479854,65354,0xF0,0x00,0,1.57200003,1.57200003,0.07038350,0.07939202,0.12852934,0.15151024
7.479854,65356,0xF0,0x00,0,1.57700002,1.57200003,0.07047179,0.07936250,0.12875457,0.15143496
7.479854,65358,0xF0,0x00,0,1.57800007,1.57000005,0.07054432,0.07934996,0.12893960,0.15140295
7.489873,65360,0xF0,0x00,0,1.57400012,1.57500005,0.07064671,0.07929754,0.12920079,0.15126923
7.489873,65362,0xF0,0x00,0,1.57800007,1.57600009,0.07072656,0.07920974,0.12940449,0.15104525
7.489873,65364,0xF0,0x00,0,1.57800007,1.56700003,0.07079105,0.07919171,0.12956901,0.15099925
7.489873,65366,0xF0,0x00,0,1.58100009,1.57100010,0.07081442,0.07917812,0.12962861,0.15096459
7.489873,65368,0xF0,0x00,0,1.57600009,1.56900012,0.07086194,0.07918791,0.12974985,0.15098956
7.489873,65370,0xF0,0x00,0,1.57800007,1.57600009,0.07090420,0.07914136,0.12985766,0.15087081
7.489873,65372,0xF0,0x00,0,1.57800007,1.56700003,0.07094263,0.07915065,0.12995569,0.15089451
7.489873,65374,0xF0,0x00,0,1.57500005,1.57100010,0.07100877,0.07915510,0.13012442,0.15090588
7.489873,65376,0xF0,0x00,0,1.57600009,1.57200003,0.07108192,0.07914621,0.13031103,0.15088318
7.489873,65378,0xF0,0x00,0,1.57700002,1.57300007,0.07114866,0.07911860,0.13048129,0.15081276
7.499851,65380,0xF0,0x00,0,1.57900012,1.56900012,0.07119021,0.07911996,0.13058726,0.15081622
7.499851,65382,0xF0,0x00,0,1.57500005,1.57300007,0.07125583,0.07909923,0.13075468,0.15076335
7.499851,65384,0xF0,0x00,0,1.57900012,1.56000006,0.07129557,0.07919692,0.13085604,0.15101255
7.499851,65386,0xF0,0x00,0,1.57200003,1.57100010,0.07138951,0.07925795,0.13109569,0.15116824
7.499851,65388,0xF0,0x00,0,1.57600009,1.57400012,0.07147673,0.07926413,0.13131818,0.15118399
7.499851,65390,0xF0,0x00,0,1.57400012,1.57400012,0.07157908,0.07923485,0.13157929,0.15110931
7.499851,65392,0xF0,0x00,0,1.57600009,1.57700002,0.07166979,0.07915244,0.13181069,0.15089908
7.499851,65394,0xF0,0x00,0,1.57400012,1.57500005,0.07177244,0.07905696,0.13207255,0.15065549
7.499851,65396,0xF0,0x00,0,1.57800007,1.57200003,0.07184099,0.07898458,0.13224742,0.15047087
7.499851,65398,0xF0,0x00,0,1.57900012,1.56600010,0.07187665,0.07898898,0.13233837,0.15048210
7.509784,65400,0xF0,0x00,0,1.58100009,1.57000005,0.07187034,0.07900213,0.13232230,0.15051563
7.509784,65402,0xF0,0x00,0,1.58200002,1.57100010,0.07182684,0.07901058,0.13221131,0.15053721
7.509784,65404,0xF0,0x00,0,1.57600009,1.57000005,0.07182091,0.07902612,0.13219619,0.15057683
7.509784,65406,0xF0,0x00,0,1.58100009,1.57200003,0.07178834,0.07902569,0.13211311,0.15057573
7.509784,65408,0xF0,0x00,0,1.58200002,1.57200003,0.07172873,0.07901496,0.13196105,0.15054835
7.509784,65410,0xF0,0x00,0,1.58200002,1.56900012,0.07165227,0.07902826,0.13176599,0.15058228
7.509784,65412,0xF0,0x00,0,1.58200002,1.57400012,0.07156572,0.07900598,0.13154522,0.15052545
7.509784,65414,0xF0,0x00,0,1.58500004,1.57200003,0.07144298,0.07898135,0.13123211,0.15046264
7.509784,65416,0xF0,0x00,0,1.57800007,1.57000005,0.07136947,0.07897585,0.13104457,0.15044859
7.509784,65418,0xF0,0x00,0,1.58300006,1.57300007,0.07127751,0.07895216,0.13080998,0.15038817
7.519769,65420,0xF0,0x00,0,1.58400011,1.56400013,0.07116441,0.07900869,0.13052145,0.15053238
7.519769,65422,0xF0,0x00,0,1.57600009,1.57400012,0.07112032,0.07901450,0.13040899,0.15054719
7.519769,65424,0xF0,0x00,0,1.58300006,1.56900012,0.07104989,0.07903849,0.13022931,0.15060839
7.519769,65426,0xF0,0x00,0,1.58000004,1.57000005,0.07099375,0.07906375,0.13008611,0.15067282
7.519769,65428,0xF0,0x00,0,1.58100009,1.56700003,0.07093722,0.07912016,0.12994188,0.15081672
7.519769,65430,0xF0,0x00,0,1.57600009,1.56900012,0.07093194,0.07917571,0.12992842,0.15095843
7.519769,65432,0xF0,0x00,0,1.58200002,1.56800008,0.07089867,0.07924033,0.12984353,0.15112329
7.519769,65434,0xF0,0x00,0,1.57900012,1.56500006,0.07087823,0.07934070,0.12979141,0.15137935
7.519769,65436,0xF0,0x00,0,1.58100009,1.57100010,0.07084590,0.07940199,0.12970893,0.15153569
7.519769,65438,0xF0,0x00,0,1.57600009,1.56500006,0.07085718,0.07949857,0.12973770,0.15178207
7.529687,65440,0xF0,0x00,0,1.57900012,1.57200003,0.07086591,0.07954562,0.12975998,0.15190211
7.529687,65442,0xF0,0x00,0,1.57900012,1.57200003,0.07087291,0.07956024,0.12977783,0.15193938
7.529687,65444,0xF0,0x00,0,1.58100009,1.57400012,0.07085834,0.07953338,0.12974067,0.15187088
7.529687,65446,0xF0,0x00,0,1.58200002,1.56600010,0.07081982,0.07956157,0.12964240,0.15194277
7.529687,65448,0xF0,0x00,0,1.58100009,1.56700003,0.07077642,0.07961479,0.12953168,0.15207854
7.529687,65450,0xF0,0x00,0,1.58200002,1.57100010,0.07072013,0.07964286,0.12938809,0.15215015
7.529687,65452,0xF0,0x00,0,1.57700002,1.56700003,0.07070704,0.07969518,0.12935469,0.15228362
7.529687,65454,0xF0,0x00,0,1.58000004,1.57000005,0.07069138,0.07973204,0.12931475,0.15237765
7.529687,65456,0xF0,0x00,0,1.58100009,1.57800007,0.07066405,0.07967704,0.12924501,0.15223734
7.539116,65458,0xF0,0x00,0,1.58000004,1.56900012,0.07063965,0.07965503,0.12918277,0.15218119
7.539116,65460,0xF0,0x00,0,1.57800007,1.57900012,0.07063776,0.07955264,0.12917796,0.15192001
7.539116,65462,0xF0,0x00,0,1.57900012,1.56900012,0.07064024,0.07950132,0.12918428,0.15178908
7.539116,65464,0xF0,0x00,0,1.57900012,1.57300007,0.07064550,0.07944272,0.12919770,0.15163960
7.539116,65466,0xF0,0x00,0,1.58300006,1.56900012,0.07061175,0.07942078,0.12911159,0.15158363
7.539116,65468,0xF0,0x00,0,1.57800007,1.56900012,0.07060412,0.07942271,0.12909213,0.15158856
7.539116,65470,0xF0,0x00,0,1.58200002,1.56800008,0.07057266,0.07945022,0.12901188,0.15165871
7.539116,65472,0xF0,0x00,0,1.57600009,1.56400013,0.07058728,0.07953470,0.12904920,0.15187424
7.539116,65474,0xF0,0x00,0,1.57700002,1.57100010,0.07062130,0.07958376,0.12913598,0.15199940
7.539116,65476,0xF0,0x00,0,1.58100009,1.57200003,0.07062674,0.07959928,0.12914984,0.15203899
7.549048,65478,0xF0,0x00,0,1.57900012,1.57100010,0.07063404,0.07960319,0.12916847,0.15204895
7.549048,65480,0xF0,0x00,0,1.57800007,1.56400013,0.07065266,0.07967088,0.12921599,0.15222163
7.549048,65482,0xF0,0x00,0,1.57700002,1.56500006,0.07068860,0.07976886,0.12930764,0.15247157
7.549048,65484,0xF0,0x00,0,1.57500005,1.57000005,0.07075571,0.07983443,0.12947886,0.15263885
7.549048,65486,0xF0,0x00,0,1.58000004,1.57000005,0.07079132,0.07987843,0.12956969,0.15275109
7.549048,65488,0xF0,0x00,0,1.57600009,1.57000005,0.07084698,0.07990805,0.12971169,0.15282665
7.549048,65490,0xF0,0x00,0,1.57800007,1.56900012,0.07089464,0.07993829,0.12983328,0.15290378
7.549048,65492,0xF0,0x00,0,1.57700002,1.57100010,0.07094685,0.07994823,0.12996645,0.15292916
7.549048,65494,0xF0,0x00,0,1.58000004,1.56600010,0.07097089,0.07999593,0.13002777,0.15305084
7.549048,65496,0xF0,0x00,0,1.58000004,1.56800008,0.07097650,0.08004712,0.13004211,0.15318143
7.559037,65498,0xF0,0x00,0,1.58000004,1.57000005,0.07097018,0.08007967,0.13002595,0.15326448
7.559037,65500,0xF0,0x00,0,1.58000004,1.56900012,0.07095621,0.08011005,0.12999032,0.15334196
7.559037,65502,0xF0,0x00,0,1.57600009,1.56900012,0.07097821,0.08013872,0.13004644,0.15341510
7.559037,65504,0xF0,0x00,0,1.57700002,1.56500006,0.07101300,0.08020674,0.13013521,0.15358864
7.559037,65506,0xF0,0x00,0,1.58000004,1.57100010,0.07102513,0.08023834,0.13016614,0.15366924
7.559037,65508,0xF0,0x00,0,1.58200002,1.56600010,0.07100213,0.08029705,0.13010748,0.15381901
7.559037,65510,0xF0,0x00,0,1.57900012,1.56900012,0.07098727,0.08034210,0.13006957,0.15393393
7.559037,65512,0xF0,0x00,0,1.57800007,1.57200003,0.07098800,0.08034730,0.13007143,0.15394719
7.559037,65514,0xF0,0x00,0,1.57400012,1.57200003,0.07103954,0.08032674,0.13020289,0.15389474
7.559037,65516,0xF0,0x00,0,1.58100009,1.56800008,0.07105201,0.08033051,0.13023472,0.15390438
7.568963,65518,0xF0,0x00,0,1.58400011,1.57200003,0.07100858,0.08030920,0.13012393,0.15385000
7.568963,65520,0xF0,0x00,0,1.57900012,1.57200003,0.07098047,0.08027193,0.13005221,0.15375492
7.568963,65522,0xF0,0x00,0,1.57800007,1.57500005,0.07097272,0.08019416,0.13003244,0.15355653
7.568963,65524,0xF0,0x00,0,1.58200002,1.57200003,0.07093742,0.08012163,0.12994242,0.15337150
7.568963,65526,0xF0,0x00,0,1.57800007,1.57000005,0.07092548,0.08007359,0.12991194,0.15324894
7.568963,65528,0xF0,0x00,0,1.58100009,1.57100010,0.07089815,0.08003165,0.12984222,0.15314196
7.568963,65530,0xF0,0x00,0,1.58100009,1.57100010,0.07086118,0.07999408,0.12974791,0.15304612
7.568963,65532,0xF0,0x00,0,1.58000004,1.57600009,0.07082855,0.07990876,0.12966466,0.15282845
7.568963,65534,0xF0,0x00,0,1.58300006,1.57600009,0.07076848,0.07979351,0.12951143,0.15253446
7.568963,0,0xF0,0x00,0,1.58300006,1.57100010,0.07069133,0.07971106,0.12931463,0.15232413
7.578963,2,0xF0,0x00,0,1.58400011,1.57200003,0.07059375,0.07964043,0.12906569,0.15214394
7.578963,4,0xF0,0x00,0,1.58400011,1.56600010,0.07048398,0.07963927,0.12878567,0.15214099
7.578963,6,0xF0,0x00,0,1.58300006,1.56800008,0.07037766,0.07966258,0.12851444,0.15220045
7.578963,8,0xF0,0x00,0,1.58100009,1.56700003,0.07029502,0.07971162,0.12830363,0.15232554
7.578963,10,0xF0,0x00,0,1.58200002,1.57000005,0.07021832,0.07974619,0.12810795,0.15241376
7.578963,12,0xF0,0x00,0,1.58100009,1.57000005,0.07015641,0.07977109,0.12795003,0.15247728
7.578963,14,0xF0,0x00,0,1.58300006,1.57500005,0.07008430,0.07973854,0.12776607,0.15239424
7.578963,16,0xF0,0x00,0,1.58600008,1.57000005,0.06997579,0.07972021,0.12748925,0.15234746
7.578963,18,0xF0,0x00,0,1.58400011,1.57000005,0.06986526,0.07971122,0.12720728,0.15232454
7.578963,20,0xF0,0x00,0,1.58000004,1.56200004,0.06979532,0.07978988,0.12702887,0.15252519
7.589006,22,0xF0,0x00,0,1.57800007,1.56900012,0.06977265,0.07985295,0.12697105,0.15268610
7.589006,24,0xF0,0x00,0,1.58000004,1.57400012,0.06976034,0.07985439,0.12693965,0.15268977
7.589006,26,0xF0,0x00,0,1.58000004,1.56600010,0.06975485,0.07989756,0.12692562,0.15279990
7.589006,28,0xF0,0x00,0,1.58200002,1.57500005,0.06973342,0.07987551,0.12687096,0.15274365
7.589006,30,0xF0,0x00,0,1.58500004,1.57200003,0.06967136,0.07984218,0.12671265,0.15265863
7.589006,32,0xF0,0x00,0,1.58000004,1.57200003,0.06963467,0.07980190,0.12661906,0.15255587
7.589006,34,0xF0,0x00,0,1.57800007,1.56500006,0.06963509,0.07982887,0.12662013,0.15262468
7.589006,36,0xF0,0x00,0,1.58200002,1.57100010,0.06961871,0.07983783,0.12657835,0.15264753
7.589006,38,0xF0,0x00,0,1.58100009,1.56900012,0.06960183,0.07985545,0.12653528,0.15269247
7.589006,40,0xF0,0x00,0,1.58300006,1.57000005,0.06956443,0.07986829,0.12643987,0.15272522
7.598903,42,0xF0,0x00,0,1.58300006,1.56600010,0.06951417,0.07991867,0.12631166,0.15285374
7.598903,44,0xF0,0x00,0,1.58100009,1.57300007,0.06947650,0.07992143,0.12621556,0.15286079
7.598903,46,0xF0,0x00,0,1.58200002,1.57500005,0.06943715,0.07987307,0.12611519,0.15273742
7.598903,48,0xF0,0x00,0,1.57700002,1.57200003,0.06944807,0.07982279,0.12614304,0.15260914
7.598903,50,0xF0,0x00,0,1.57800007,1.57000005,0.06948111,0.07979214,0.12622732,0.15253097
7.598903,52,0xF0,0x00,0,1.57300007,1.57300007,0.06957904,0.07974392,0.12647712,0.15240796
7.598903,54,0xF0,0x00,0,1.58000004,1.57100010,0.06964651,0.07970523,0.12664926,0.15230925
7.598903,56,0xF0,0x00,0,1.57600009,1.56700003,0.06973439,0.07971384,0.12687345,0.15233120
7.598903,58,0xF0,0x00,0,1.57400012,1.57000005,0.06985494,0.07972230,0.12718098,0.15235281
7.598903,60,0xF0,0x00,0,1.57600009,1.57800007,0.06997496,0.07964908,0.12748714,0.15216602
7.609014,62,0xF0,0x00,0,1.57600009,1.57300007,0.07009340,0.07957485,0.12778929,0.15197664
7.609014,64,0xF0,0x00,0,1.57600009,1.57400012,0.07020962,0.07949052,0.12808578,0.15176153
7.609014,66,0xF0,0x00,0,1.57700002,1.57500005,0.07031304,0.07939036,0.12834960,0.15150602
7.609014,68,0xF0,0x00,0,1.58100009,1.56800008,0.07036639,0.07935233,0.12848569,0.15140900
7.609014,70,0xF0,0x00,0,1.58200002,1.57400012,0.07037670,0.07929362,0.12851200,0.15125924
7.609014,72,0xF0,0x00,0,1.57800007,1.57100010,0.07039990,0.07925276,0.12857115,0.15115499
7.609014,74,0xF0,0x00,0,1.58000004,1.57200003,0.07041078,0.07921363,0.12859893,0.15105517
7.609014,76,0xF0,0x00,0,1.58000004,1.56800008,0.07041362,0.07921676,0.12860617,0.15106317
7.609014,78,0xF0,0x00,0,1.57600009,1.56700003,0.07045199,0.07925733,0.12870406,0.15116666
7.609014,80,0xF0,0x00,0,1.57900012,1.57400012,0.07048233,0.07925032,0.12878145,0.15114877
7.626840,82,0xF0,0x00,0,1.58000004,1.57200003,0.07049699,0.07923306,0.12881885,0.15110475
7.626840,84,0xF0,0x00,0,1.58300006,1.57100010,0.07047082,0.07921954,0.12875208,0.15107027
7.626840,86,0xF0,0x00,0,1.58200002,1.57000005,0.07042876,0.07921878,0.12864479,0.15106830
7.626840,88,0xF0,0x00,0,1.57800007,1.57200003,0.07041763,0.07920586,0.12861639,0.15103537
7.626840,90,0xF0,0x00,0,1.57900012,1.57100010,0.07041638,0.07919543,0.12861320,0.15100875
7.626840,92,0xF0,0x00,0,1.58000004,1.57300007,0.07041132,0.07916633,0.12860031,0.15093452
7.626840,94,0xF0,0x00,0,1.58400011,1.57100010,0.07036312,0.07914586,0.12847735,0.15088229
7.626840,96,0xF0,0x00,0,1.57900012,1.57000005,0.07033850,0.07914135,0.12841454,0.15087079
7.626840,98,0xF0,0x00,0,1.58600008,1.56700003,0.07025804,0.07917775,0.12820928,0.15096365
7.626840,100,0xF0,0x00,0,1.57800007,1.58000004,0.07022387,0.07910773,0.12812211,0.15078503
7.648084,102,0xF0,0x00,0,1.58200002,1.57000005,0.07017916,0.07907164,0.12800807,0.15069295
7.648084,104,0xF0,0x00,0,1.58000004,1.56900012,0.07014849,0.07906801,0.12792982,0.15068369
7.648084,106,0xF0,0x00,0,1.58100009,1.58000004,0.07011700,0.07897326,0.12784947,0.15044199
7.648084,108,0xF0,0x00,0,1.58500004,1.57000005,0.07004454,0.07892259,0.12766464,0.15031274
7.648084,110,0xF0,0x00,0,1.57900012,1.57100010,0.07000753,0.07889069,0.12757021,0.15023135
7.648084,112,0xF0,0x00,0,1.57900012,1.57300007,0.06999375,0.07885084,0.12753507,0.15012968
7.648084,114,0xF0,0x00,0,1.58000004,1.57100010,0.06998493,0.07882664,0.12751257,0.15006797
7.648084,116,0xF0,0x00,0,1.58000004,1.57200003,0.06997938,0.07880261,0.12749843,0.15000665
7.648084,118,0xF0,0x00,0,1.58100009,1.57200003,0.06996583,0.07877892,0.12746385,0.14994623
7.648084,120,0xF0,0x00,0,1.57900012,1.57200003,0.06996762,0.07875571,0.12746842,0.14988701
7.657456,122,0xF0,0x00,0,1.58300006,1.57500005,0.06993854,0.07870246,0.12739423,0.14975117
7.657456,124,0xF0,0x00,0,1.58000004,1.57200003,0.06992040,0.07866094,0.12734795,0.14964525
7.657456,126,0xF0,0x00,0,1.57800007,1.56900012,0.06992988,0.07865798,0.12737215,0.14963771
7.657456,128,0xF0,0x00,0,1.57900012,1.57200003,0.06994691,0.07864937,0.12741558,0.14961573
7.657456,130,0xF0,0x00,0,1.58100009,1.56900012,0.06994824,0.07866777,0.12741898,0.14966267
7.657456,132,0xF0,0x00,0,1.58200002,1.56500006,0.06992925,0.07874415,0.12737054,0.14985752
7.657456,134,0xF0,0x00,0,1.57900012,1.56900012,0.06992790,0.07881642,0.12736709,0.15004189
7.657456,136,0xF0,0x00,0,1.57600009,1.56700003,0.06996852,0.07890567,0.12747072,0.15026957
7.657456,138,0xF0,0x00,0,1.58000004,1.57200003,0.06999505,0.07895403,0.12753840,0.15039293
7.657456,140,0xF0,0x00,0,1.58300006,1.57200003,0.06998166,0.07897551,0.12750423,0.15044774
7.663849,142,0xF0,0x00,0,1.57900012,1.57500005,0.06998339,0.07894887,0.12750863,0.15037978
7.663849,144,0xF0,0x00,0,1.58300006,1.56500006,0.06995410,0.07899333,0.12743394,0.15049317
7.663849,146,0xF0,0x00,0,1.57600009,1.56600010,0.06997643,0.07907303,0.12749089,0.15069650
7.663849,148,0xF0,0x00,0,1.57800007,1.57000005,0.07001146,0.07913389,0.12758026,0.15085176
7.663849,150,0xF0,0x00,0,1.58100009,1.56800008,0.07002375,0.07920236,0.12761162,0.15102643
7.663849,152,0xF0,0x00,0,1.57800007,1.57500005,0.07005182,0.07920372,0.12768321,0.15102991
7.663849,154,0xF0,0x00,0,1.58000004,1.57100010,0.07006940,0.07920253,0.12772804,0.15102684
7.663849,156,0xF0,0x00,0,1.58000004,1.57100010,0.07008003,0.07919969,0.12775517,0.15101960
7.663849,158,0xF0,0x00,0,1.57900012,1.57300007,0.07009626,0.07917544,0.12779659,0.15095776
7.663849,160,0xF0,0x00,0,1.58200002,1.57000005,0.07008538,0.07916820,0.12776881,0.15093929
7.670281,162,0xF0,0x00,0,1.58000004,1.56600010,0.07007749,0.07921275,0.12774868,0.15105294
7.670281,164,0xF0,0x00,0,1.58000004,1.57100010,0.07007160,0.07923933,0.12773368,0.15112074
7.670281,166,0xF0,0x00,0,1.58100009,1.56300008,0.07005689,0.07933556,0.12769613,0.15136620
7.670281,168,0xF0,0x00,0,1.58500004,1.57500005,0.06999587,0.07935347,0.12754047,0.15141191
7.670281,170,0xF0,0x00,0,1.57800007,1.57800007,0.06997691,0.07929010,0.12749211,0.15125024
7.670281,172,0xF0,0x00,0,1.57500005,1.56700003,0.07001586,0.07928701,0.12759148,0.15124238
7.670281,174,0xF0,0x00,0,1.58000004,1.57200003,0.07004083,0.07927191,0.12765518,0.15120384
7.670281,176,0xF0,0x00,0,1.57700002,1.56700003,0.07008709,0.07930014,0.12777320,0.15127587
7.670281,178,0xF0,0x00,0,1.58400011,1.57100010,0.07007530,0.07931530,0.12774310,0.15131456
7.670281,180,0xF0,0x00,0,1.58000004,1.56800008,0.07006691,0.07935244,0.12772171,0.15140928
7.675221,182,0xF0,0x00,0,1.58000004,1.56800008,0.07006083,0.07940337,0.12770620,0.15153921
7.675221,184,0xF0,0x00,0,1.57900012,1.56500006,0.07006647,0.07949325,0.12772058,0.15176851
7.675221,186,0xF0,0x00,0,1.57900012,1.56800008,0.07007962,0.07957679,0.12775412,0.15198161
7.675221,188,0xF0,0x00,0,1.57900012,1.57700002,0.07009748,0.07956368,0.12779967,0.15194815
7.675221,190,0xF0,0x00,0,1.58100009,1.57200003,0.07009782,0.07953928,0.12780055,0.15188593
7.675221,192,0xF0,0x00,0,1.58100009,1.56700003,0.07008685,0.07955880,0.12777257,0.15193573
7.675221,194,0xF0,0x00,0,1.58200002,1.56500006,0.07005851,0.07962684,0.12770028,0.15210928
7.675221,196,0xF0,0x00,0,1.57900012,1.56900012,0.07004981,0.07968472,0.12767810,0.15225694
7.675221,198,0xF0,0x00,0,1.57800007,1.56800008,0.07006408,0.07974566,0.12771447,0.15241238
7.675221,200,0xF0,0x00,0,1.57900012,1.57000005,0.07008281,0.07978757,0.12776227,0.15251930
7.686983,202,0xF0,0x00,0,1.58000004,1.57000005,0.07009406,0.07981677,0.12779096,0.15259381
7.686983,204,0xF0,0x00,0,1.57800007,1.57400012,0.07012073,0.07979672,0.12785900,0.15254267
7.686983,206,0xF0,0x00,0,1.58400011,1.56900012,0.07009596,0.07979605,0.12779580,0.15254094
7.686983,208,0xF0,0x00,0,1.57500005,1.56900012,0.07012994,0.07980788,0.12788250,0.15257111
7.686983,210,0xF0,0x00,0,1.58000004,1.56400013,0.07015054,0.07987860,0.12793505,0.15275152
7.686983,212,0xF0,0x00,0,1.57500005,1.56900012,0.07021324,0.07993565,0.12809502,0.15289707
7.686983,214,0xF0,0x00,0,1.57900012,1.57200003,0.07026172,0.07995275,0.12821867,0.15294068
7.686983,216,0xF0,0x00,0,1.58000004,1.57000005,0.07029033,0.07996426,0.12829165,0.15297005
7.686983,218,0xF0,0x00,0,1.57900012,1.57300007,0.07031602,0.07994148,0.12835719,0.15291195
7.694042,220,0xF0,0x00,0,1.57600009,1.56900012,0.07037012,0.07993757,0.12849522,0.15290196
7.694042,222,0xF0,0x00,0,1.58100009,1.56500006,0.07039107,0.07998662,0.12854865,0.15302710
7.694042,224,0xF0,0x00,0,1.58000004,1.57100010,0.07040060,0.08000822,0.12857297,0.15308219
7.694042,226,0xF0,0x00,0,1.58100009,1.57200003,0.07039248,0.08000170,0.12855226,0.15306555
7.694042,228,0xF0,0x00,0,1.58300006,1.56700003,0.07035267,0.08002803,0.12845071,0.15313274
7.694042,230,0xF0,0x00,0,1.57700002,1.56900012,0.07035396,0.08005493,0.12845398,0.15320136
7.694042,232,0xF0,0x00,0,1.58200002,1.56800008,0.07033081,0.08009210,0.12839492,0.15329617
7.694042,234,0xF0,0x00,0,1.58400011,1.57000005,0.07027174,0.08011515,0.12824422,0.15335497
7.694042,236,0xF0,0x00,0,1.57900012,1.57100010,0.07024105,0.08011865,0.12816595,0.15336390
7.694042,238,0xF0,0x00,0,1.58000004,1.57100010,0.07021879,0.08010951,0.12810914,0.15334059
7.701821,240,0xF0,0x00,0,1.58400011,1.56700003,0.07016144,0.08013307,0.12796286,0.15340067
7.701821,242,0xF0,0x00,0,1.57700002,1.57200003,0.07015336,0.08012653,0.12794223,0.15338400
7.701821,244,0xF0,0x00,0,1.57800007,1.56900012,0.07016695,0.08013121,0.12797692,0.15339595
7.701821,246,0xF0,0x00,0,1.57800007,1.57200003,0.07019440,0.08011252,0.12804693,0.15334827
7.701821,248,0xF0,0x00,0,1.57800007,1.57100010,0.07023051,0.08008911,0.12813905,0.15328856
7.701821,250,0xF0,0x00,0,1.57800007,1.57100010,0.07027183,0.08006292,0.12824447,0.15322173
7.701821,252,0xF0,0x00,0,1.58000004,1.57400012,0.07029573,0.08000462,0.12830544,0.15307300
7.701821,254,0xF0,0x00,0,1.58000004,1.56900012,0.07030813,0.07997714,0.12833709,0.15300290
7.701821,256,0xF0,0x00,0,1.57800007,1.56700003,0.07033338,0.07999021,0.12840147,0.15303625
7.701821,258,0xF0,0x00,0,1.58100009,1.57200003,0.07033607,0.07997836,0.12840836,0.15300603
7.708988,260,0xF0,0x00,0,1.57400012,1.57000005,0.07039552,0.07997094,0.12856001,0.15298709
7.708988,262,0xF0,0x00,0,1.58100009,1.56900012,0.07041966,0.07997663,0.12862158,0.15300161
7.708988,264,0xF0,0x00,0,1.57900012,1.56800008,0.07044115,0.08000092,0.12867640,0.15306357
7.708988,266,0xF0,0x00,0,1.57900012,1.57300007,0.07046071,0.07998601,0.12872629,0.15302555
7.708988,268,0xF0,0x00,0,1.57800007,1.56700003,0.07048900,0.08000711,0.12879847,0.15307935
7.708988,270,0xF0,0x00,0,1.58200002,1.56800008,0.07048190,0.08004102,0.12878036,0.15316588
7.708988,272,0xF0,0x00,0,1.58100009,1.56600010,0.07046222,0.08010324,0.12873015,0.15332459
7.708988,274,0xF0,0x00,0,1.57600009,1.57100010,0.07048556,0.08013214,0.12878971,0.15339832
7.708988,276,0xF0,0x00,0,1.58300006,1.57000005,0.07046511,0.08014944,0.12873752,0.15344246
7.708988,278,0xF0,0x00,0,1.58100009,1.57400012,0.07043698,0.08011833,0.12866578,0.15336308
7.718080,280,0xF0,0x00,0,1.58000004,1.56900012,0.07041439,0.08010723,0.12860814,0.15333478
7.718080,282,0xF0,0x00,0,1.58000004,1.57000005,0.07039558,0.08009898,0.12856016,0.15331371
7.718080,284,0xF0,0x00,0,1.58100009,1.57100010,0.07036923,0.08008245,0.12849292,0.15327157
7.718080,286,0xF0,0x00,0,1.58000004,1.56800008,0.07034846,0.08009133,0.12843995,0.15329419
7.718080,288,0xF0,0x00,0,1.58200002,1.57400012,0.07031114,0.08005536,0.12834473,0.15320244
7.718080,290,0xF0,0x00,0,1.57800007,1.57000005,0.07030426,0.08003160,0.12832719,0.15314183
7.718080,292,0xF0,0x00,0,1.57900012,1.57000005,0.07030691,0.08001594,0.12833396,0.15310186
7.718080,294,0xF0,0x00,0,1.57800007,1.57400012,0.07032587,0.07996491,0.12838233,0.15297171
7.718080,296,0xF0,0x00,0,1.57800007,1.57100010,0.07035516,0.07992216,0.12845704,0.15286265
7.718080,298,0xF0,0x00,0,1.58200002,1.57000005,0.07035007,0.07989537,0.12844405,0.15279430
7.728075,300,0xF0,0x00,0,1.57700002,1.56700003,0.07037377,0.07990971,0.12850451,0.15283090
7.728075,302,0xF0,0x00,0,1.57900012,1.57200003,0.07039545,0.07989951,0.12855981,0.15280488
7.728075,304,0xF0,0x00,0,1.57800007,1.56800008,0.07042578,0.07991433,0.12863719,0.15284269
7.728075,306,0xF0,0x00,0,1.58200002,1.56900012,0.07042064,0.07993495,0.12862408,0.15289529
7.728075,308,0xF0,0x00,0,1.57600009,1.57000005,0.07045379,0.07994892,0.12870863,0.15293093
7.728075,310,0xF0,0x00,0,1.57900012,1.57400012,0.07048074,0.07991770,0.12877740,0.15285127
7.728075,312,0xF0,0x00,0,1.58100009,1.56600010,0.07048304,0.07993914,0.12878327,0.15290597
7.728075,314,0xF0,0x00,0,1.58400011,1.57200003,0.07043885,0.07993322,0.12867053,0.15289086
7.728075,316,0xF0,0x00,0,1.57800007,1.57100010,0.07042624,0.07991989,0.12863837,0.15285686
7.728075,318,0xF0,0x00,0,1.57700002,1.56800008,0.07044433,0.07993248,0.12868452,0.15288898
7.737961,320,0xF0,0x00,0,1.58000004,1.57300007,0.07045148,0.07991073,0.12870274,0.15283348
7.737961,322,0xF0,0x00,0,1.57700002,1.56700003,0.07048205,0.07992817,0.12878074,0.15287799
7.737961,324,0xF0,0x00,0,1.57700002,1.57600009,0.07052743,0.07987902,0.12889652,0.15275258
7.737961,326,0xF0,0x00,0,1.57700002,1.57000005,0.07058191,0.07984854,0.12903547,0.15267482
7.737961,328,0xF0,0x00,0,1.57800007,1.57300007,0.07063150,0.07979985,0.12916200,0.15255062
7.737961,330,0xF0,0x00,0,1.57600009,1.57100010,0.07069782,0.07976028,0.12933117,0.15244968
7.737961,332,0xF0,0x00,0,1.58300006,1.57400012,0.07070293,0.07969643,0.12934421,0.15228681
7.737961,334,0xF0,0x00,0,1.57800007,1.56800008,0.07071944,0.07967871,0.12938634,0.15224160
7.737961,336,0xF0,0x00,0,1.57800007,1.57300007,0.07074314,0.07963998,0.12944680,0.15214281
7.737961,338,0xF0,0x00,0,1.58200002,1.56800008,0.07073049,0.07963903,0.12941450,0.15214039
7.748035,340,0xF0,0x00,0,1.58700013,1.57200003,0.07064355,0.07962172,0.12919274,0.15209624
7.748035,342,0xF0,0x00,0,1.57900012,1.57500005,0.07059109,0.07956347,0.12905891,0.15194762
7.748035,344,0xF0,0x00,0,1.57800007,1.57400012,0.07057160,0.07948957,0.12900919,0.15175910
7.748035,346,0xF0,0x00,0,1.57900012,1.57400012,0.07056338,0.07940633,0.12898822,0.15154676
7.748035,348,0xF0,0x00,0,1.58100009,1.57700002,0.07054215,0.07928735,0.12893406,0.15124324
7.748035,350,0xF0,0x00,0,1.57900012,1.57100010,0.07053311,0.07920765,0.12891100,0.15103993
7.748035,352,0xF0,0x00,0,1.58000004,1.56800008,0.07052185,0.07918468,0.12888226,0.15098134
7.748035,354,0xF0,0x00,0,1.57700002,1.57200003,0.07053983,0.07915778,0.12892814,0.15091272
7.748035,356,0xF0,0x00,0,1.57600009,1.57900012,0.07058669,0.07905731,0.12904768,0.15065642
7.748035,358,0xF0,0x00,0,1.57800007,1.57200003,0.07063132,0.07898171,0.12916152,0.15046355
7.758019,360,0xF0,0x00,0,1.57800007,1.57300007,0.07067406,0.07891274,0.12927057,0.15028761
7.758019,362,0xF0,0x00,0,1.58100009,1.57200003,0.07068458,0.07885894,0.12929741,0.15015036
7.758019,364,0xF0,0x00,0,1.57600009,1.57300007,0.07072515,0.07880529,0.12940089,0.15001349
7.758019,366,0xF0,0x00,0,1.57700002,1.57000005,0.07077450,0.07878284,0.12952679,0.14995623
7.758019,368,0xF0,0x00,0,1.58200002,1.57000005,0.07077808,0.07878076,0.12953591,0.14995091
7.758019,370,0xF0,0x00,0,1.57800007,1.57700002,0.07079283,0.07872051,0.12957355,0.14979722
7.758019,372,0xF0,0x00,0,1.58200002,1.57500005,0.07077389,0.07864373,0.12952523,0.14960136
7.758019,374,0xF0,0x00,0,1.57900012,1.56800008,0.07076398,0.07862839,0.12949994,0.14956222
7.758019,376,0xF0,0x00,0,1.57700002,1.57300007,0.07078036,0.07860190,0.12954172,0.14949463
7.758019,378,0xF0,0x00,0,1.58100009,1.57200003,0.07077279,0.07857867,0.12952241,0.14943539
7.771114,380,0xF0,0x00,0,1.57800007,1.57500005,0.07078041,0.07852723,0.12954187,0.14930415
7.771114,382,0xF0,0x00,0,1.58400011,1.57200003,0.07073662,0.07848866,0.12943015,0.14920576
7.771114,384,0xF0,0x00,0,1.57800007,1.57000005,0.07072123,0.07847917,0.12939090,0.14918156
7.771114,386,0xF0,0x00,0,1.57900012,1.57000005,0.07071415,0.07848854,0.12937282,0.14920546
7.771114,388,0xF0,0x00,0,1.57900012,1.57000005,0.07071248,0.07850999,0.12936859,0.14926019
7.771114,390,0xF0,0x00,0,1.58300006,1.56900012,0.07067358,0.07854920,0.12926935,0.14936019
7.771114,392,0xF0,0x00,0,1.57700002,1.57200003,0.07067219,0.07856890,0.12926580,0.14941046
7.771114,394,0xF0,0x00,0,1.58300006,1.56700003,0.07063387,0.07862676,0.12916805,0.14955805
7.771114,396,0xF0,0x00,0,1.58000004,1.57600009,0.07060269,0.07861695,0.12908849,0.14953302
7.771114,398,0xF0,0x00,0,1.58400011,1.57000005,0.07053567,0.07862471,0.12891753,0.14955284
7.778260,400,0xF0,0x00,0,1.57900012,1.57300007,0.07049716,0.07861316,0.12881929,0.14952338
7.778260,402,0xF0,0x00,0,1.57600009,1.57000005,0.07050800,0.07861984,0.12884694,0.14954039
7.778260,404,0xF0,0x00,0,1.58200002,1.56900012,0.07048944,0.07864840,0.12879960,0.14961326
7.778260,406,0xF0,0x00,0,1.58200002,1.57100010,0.07045210,0.07867040,0.12870434,0.14966939
7.778260,408,0xF0,0x00,0,1.58300006,1.57300007,0.07039283,0.07866758,0.12855315,0.14966220
7.778260,410,0xF0,0x00,0,1.57500005,1.56700003,0.07040153,0.07870990,0.12857534,0.14977016
7.778260,412,0xF0,0x00,0,1.58200002,1.56500006,0.07038268,0.07880130,0.12852724,0.15000330
7.778260,414,0xF0,0x00,0,1.57900012,1.56800008,0.07037680,0.07889286,0.12851225,0.15023687
7.778260,416,0xF0,0x00,0,1.58000004,1.57100010,0.07036917,0.07895302,0.12849277,0.15039036
7.778260,418,0xF0,0x00,0,1.58100009,1.57600009,0.07035030,0.07894138,0.12844463,0.15036064
7.787935,420,0xF0,0x00,0,1.57800007,1.57100010,0.07035492,0.07893445,0.12845644,0.15034300
7.787935,422,0xF0,0x00,0,1.58300006,1.56900012,0.07032373,0.07895103,0.12837686,0.15038529
7.787935,424,0xF0,0x00,0,1.58300006,1.56900012,0.07026973,0.07898261,0.12823911,0.15046583
7.787935,426,0xF0,0x00,0,1.58300006,1.56500006,0.07020158,0.07906429,0.12806524,0.15067419
7.787935,428,0xF0,0x00,0,1.58000004,1.56600010,0.07015555,0.07916728,0.12794782,0.15093693
7.787935,430,0xF0,0x00,0,1.58300006,1.57100010,0.07009369,0.07923202,0.12779003,0.15110210
7.787935,432,0xF0,0x00,0,1.58000004,1.57300007,0.07005282,0.07925106,0.12768579,0.15115066
7.787935,434,0xF0,0x00,0,1.58200002,1.56600010,0.07000554,0.07931172,0.12756516,0.15130541
7.787935,436,0xF0,0x00,0,1.57500005,1.57000005,0.07002592,0.07935788,0.12761714,0.15142316
7.787935,438,0xF0,0x00,0,1.58300006,1.57000005,0.07000824,0.07939420,0.12757204,0.15151581
7.797854,440,0xF0,0x00,0,1.58000004,1.56300008,0.06999674,0.07949512,0.12754272,0.15177327
7.797854,442,0xF0,0x00,0,1.58300006,1.56600010,0.06995879,0.07960615,0.12744589,0.15205650
7.797854,444,0xF0,0x00,0,1.58100009,1.56200004,0.06992453,0.07976330,0.12735850,0.15245739
7.797854,446,0xF0,0x00,0,1.57900012,1.57100010,0.06991339,0.07985692,0.12733006,0.15269624
7.797854,448,0xF0,0x00,0,1.57800007,1.56400013,0.06992745,0.07997992,0.12736595,0.15301000
7.797854,450,0xF0,0x00,0,1.57700002,1.57000005,0.06996784,0.08005948,0.12746897,0.15321296
7.797854,452,0xF0,0x00,0,1.57900012,1.57100010,0.07000440,0.08010002,0.12756225,0.15331638
7.797854,454,0xF0,0x00,0,1.57300007,1.56600010,0.07009928,0.08016592,0.12780428,0.15348448
7.797854,456,0xF0,0x00,0,1.58100009,1.56900012,0.07014929,0.08021693,0.12793185,0.15361461
7.797854,458,0xF0,0x00,0,1.57700002,1.56600010,0.07021060,0.08028839,0.12808827,0.15379691
7.808525,460,0xF0,0x00,0,1.57900012,1.56800008,0.07025820,0.08035193,0.12820970,0.15395901
7.808525,462,0xF0,0x00,0,1.57900012,1.56800008,0.07029647,0.08040973,0.12830733,0.15410645
7.808525,464,0xF0,0x00,0,1.57700002,1.56900012,0.07034871,0.08045303,0.12844059,0.15421692
7.808525,466,0xF0,0x00,0,1.58400011,1.57200003,0.07033811,0.08045597,0.12841354,0.15422443
7.808525,468,0xF0,0x00,0,1.57900012,1.57100010,0.07033801,0.08044304,0.12841329,0.15419142
7.808525,470,0xF0,0x00,0,1.58200002,1.57000005,0.07031412,0.08043018,0.12835236,0.15415862
7.808525,472,0xF0,0x00,0,1.57900012,1.56600010,0.07030570,0.08045825,0.12833086,0.15423024
7.808525,474,0xF0,0x00,0,1.58100009,1.57000005,0.07028696,0.08047169,0.12828307,0.15426452
7.808525,476,0xF0,0x00,0,1.57800007,1.56800008,0.07029232,0.08049594,0.12829675,0.15432638
7.808525,478,0xF0,0x00,0,1.58300006,1.56900012,0.07026224,0.08051672,0.12821999,0.15437938
7.851448,480,0xF0,0x00,0,1.58100009,1.56700003,0.07022996,0.08055542,0.12813765,0.15447812
7.851448,482,0xF0,0x00,0,1.58000004,1.56900012,0.07020679,0.08058493,0.12807855,0.15455338
7.851448,484,0xF0,0x00,0,1.58000004,1.56900012,0.07018974,0.08060819,0.12803504,0.15461272
7.851448,486,0xF0,0x00,0,1.57500005,1.57200003,0.07022774,0.08059663,0.12813199,0.15458323
7.851448,488,0xF0,0x00,0,1.57700002,1.57300007,0.07028051,0.08055252,0.12826660,0.15447071
7.851448,490,0xF0,0x00,0,1.58100009,1.56900012,0.07030150,0.08052862,0.12832016,0.15440974
7.851448,492,0xF0,0x00,0,1.57900012,1.57000005,0.07032217,0.08050781,0.12837288,0.15435664
7.851448,494,0xF0,0x00,0,1.58100009,1.56900012,0.07032203,0.08049940,0.12837252,0.15433519
7.851448,496,0xF0,0x00,0,1.58100009,1.57000005,0.07030847,0.08048888,0.12833792,0.15430835
7.851448,498,0xF0,0x00,0,1.57400012,1.56300008,0.07035771,0.08054843,0.12846354,0.15446028
7.861591,500,0xF0,0x00,0,1.57800007,1.57300007,0.07040621,0.08055070,0.12858728,0.15446606
7.861591,502,0xF0,0x00,0,1.57500005,1.57200003,0.07048431,0.08052617,0.12878650,0.15440351
7.861591,504,0xF0,0x00,0,1.58200002,1.57100010,0.07050939,0.08049480,0.12885047,0.15432346
7.861591,506,0xF0,0x00,0,1.57800007,1.57200003,0.07054076,0.08044913,0.12893049,0.15420698
7.861591,508,0xF0,0x00,0,1.58100009,1.56900012,0.07054529,0.08042528,0.12894207,0.15414613
7.861591,510,0xF0,0x00,0,1.57700002,1.56700003,0.07057323,0.08043613,0.12901334,0.15417379
7.861591,512,0xF0,0x00,0,1.57600009,1.56800008,0.07062618,0.08045906,0.12914841,0.15423229
7.861591,514,0xF0,0x00,0,1.57900012,1.57600009,0.07066415,0.08040804,0.12924527,0.15410216
7.861591,516,0xF0,0x00,0,1.57600009,1.57100010,0.07072263,0.08036078,0.12939447,0.15398158
7.861591,518,0xF0,0x00,0,1.57900012,1.56400013,0.07076319,0.08038773,0.12949793,0.15405034
7.867624,520,0xF0,0x00,0,1.57700002,1.57000005,0.07081215,0.08040117,0.12962283,0.15408462
7.867624,522,0xF0,0x00,0,1.58100009,1.57200003,0.07082528,0.08038538,0.12965633,0.15404433
7.867624,524,0xF0,0x00,0,1.57700002,1.56800008,0.07085591,0.08039164,0.12973446,0.15406030
7.867624,526,0xF0,0x00,0,1.57800007,1.57000005,0.07088733,0.08039169,0.12981461,0.15406044
7.867624,528,0xF0,0x00,0,1.57800007,1.57300007,0.07091893,0.08035716,0.12989524,0.15397236
7.867624,530,0xF0,0x00,0,1.57800007,1.57200003,0.07095034,0.08031087,0.12997535,0.15385425
7.867624,532,0xF0,0x00,0,1.58000004,1.56600010,0.07096092,0.08031859,0.13000233,0.15387394
7.867624,534,0xF0,0x00,0,1.57900012,1.57300007,0.07096814,0.08028975,0.13002077,0.15380038
7.867624,536,0xF0,0x00,0,1.57900012,1.56600010,0.07097313,0.08030895,0.13003349,0.15384936
7.867624,538,0xF0,0x00,0,1.57600009,1.57100010,0.07100718,0.08030800,0.13012037,0.15384692
7.873571,540,0xF0,0x00,0,1.57900012,1.57000005,0.07102908,0.08030424,0.13017623,0.15383735
7.873571,540,0xF0,0x00,0,1.57900012,1.57000005,0.07102908,0.08030424,0.13017623,0.15383735
7.873571,542,0xF0,0x00,0,1.57700002,1.57600009,0.07106330,0.08023759,0.13026351,0.15366732
7.873571,544,0xF0,0x00,0,1.58000004,1.57100010,0.07107453,0.08018197,0.13029216,0.15352544
7.873571,546,0xF0,0x00,0,1.57700002,1.56400013,0.07110140,0.08020537,0.13036071,0.15358511
7.873571,548,0xF0,0x00,0,1.58100009,1.57100010,0.07109732,0.08020817,0.13035031,0.15359229
7.873571,550,0xF0,0x00,0,1.57900012,1.56600010,0.07109370,0.08024862,0.13034107,0.15369546
7.873571,552,0xF0,0x00,0,1.58300006,1.57200003,0.07104965,0.08025181,0.13022871,0.15370359
7.873571,554,0xF0,0x00,0,1.58100009,1.56900012,0.07100035,0.08026148,0.13010292,0.15372828
7.873571,556,0xF0,0x00,0,1.57500005,1.56800008,0.07100929,0.08028544,0.13012573,0.15378939
7.878595,558,0xF0,0x00,0,1.57900012,1.57100010,0.07101496,0.08028780,0.13014020,0.15379541
7.878595,560,0xF0,0x00,0,1.57500005,1.57300007,0.07105922,0.08025582,0.13025311,0.15371384
7.878595,562,0xF0,0x00,0,1.58100009,1.57000005,0.07106680,0.08023258,0.13027245,0.15365455
7.878595,564,0xF0,0x00,0,1.58300006,1.57500005,0.07103025,0.08016428,0.13017921,0.15348029
7.878595,566,0xF0,0x00,0,1.57700002,1.56700003,0.07102674,0.08014909,0.13017024,0.15344156
7.878595,568,0xF0,0x00,0,1.57800007,1.56800008,0.07103439,0.08015815,0.13018976,0.15346467
7.878595,570,0xF0,0x00,0,1.58200002,1.57300007,0.07100841,0.08013182,0.13012348,0.15339750
7.878595,572,0xF0,0x00,0,1.58100009,1.57000005,0.07097118,0.08011349,0.13002852,0.15335073
7.878595,574,0xF0,0x00,0,1.57500005,1.57800007,0.07098820,0.08001899,0.13007194,0.15310967
7.878595,576,0xF0,0x00,0,1.58100009,1.57400012,0.07097893,0.07991707,0.13004829,0.15284966
7.884599,578,0xF0,0x00,0,1.58000004,1.57400012,0.07096297,0.07981139,0.13000758,0.15258008
7.884599,580,0xF0,0x00,0,1.57900012,1.57200003,0.07095306,0.07972475,0.12998229,0.15235905
7.884599,582,0xF0,0x00,0,1.57700002,1.56700003,0.07096751,0.07970222,0.13001916,0.15230158
7.884599,584,0xF0,0x00,0,1.58400011,1.57400012,0.07092622,0.07964996,0.12991382,0.15216827
7.884599,586,0xF0,0x00,0,1.57900012,1.57600009,0.07090033,0.07955868,0.12984778,0.15193540
7.884599,588,0xF0,0x00,0,1.57800007,1.57000005,0.07089483,0.07950427,0.12983376,0.15179661
7.884599,590,0xF0,0x00,0,1.58300006,1.57200003,0.07085159,0.07945384,0.12972346,0.15166795
7.884599,592,0xF0,0x00,0,1.57800007,1.57600009,0.07083540,0.07936573,0.12968214,0.15144318
7.884599,594,0xF0,0x00,0,1.58300006,1.57000005,0.07078587,0.07931534,0.12955578,0.15131465
7.884599,596,0xF0,0x00,0,1.57600009,1.57200003,0.07078665,0.07926943,0.12955779,0.15119752
7.932521,598,0xF0,0x00,0,1.57900012,1.57500005,0.07078934,0.07919630,0.12956464,0.15101098
7.932521,600,0xF0,0x00,0,1.57900012,1.56400013,0.07079321,0.07921844,0.12957452,0.15106745
7.932521,602,0xF0,0x00,0,1.57700002,1.57000005,0.07081819,0.07924069,0.12963825,0.15112419
7.932521,604,0xF0,0x00,0,1.57700002,1.56800008,0.07085654,0.07928316,0.12973608,0.15123254
7.932521,606,0xF0,0x00,0,1.58100009,1.57300007,0.07086237,0.07928729,0.12975094,0.15124309
7.932521,608,0xF0,0x00,0,1.57700002,1.56600010,0.07088791,0.07933798,0.12981610,0.15137239
7.932521,610,0xF0,0x00,0,1.57900012,1.57400012,0.07090553,0.07933667,0.12986104,0.15136904
7.932521,612,0xF0,0x00,0,1.58100009,1.56400013,0.07089748,0.07940371,0.12984051,0.15154009
7.932521,614,0xF0,0x00,0,1.58100009,1.57000005,0.07087296,0.07945304,0.12977795,0.15166593
7.932521,616,0xF0,0x00,0,1.58000004,1.57300007,0.07084823,0.07945988,0.12971488,0.15168338
7.937307,618,0xF0,0x00,0,1.57800007,1.57100010,0.07084402,0.07945961,0.12970412,0.15168267
7.937307,620,0xF0,0x00,0,1.58200002,1.57400012,0.07081232,0.07942418,0.12962328,0.15159230
7.937307,622,0xF0,0x00,0,1.57700002,1.56600010,0.07081416,0.07944794,0.12962797,0.15165290
7.937307,624,0xF0,0x00,0,1.58200002,1.56900012,0.07078668,0.07947908,0.12955785,0.15173236
7.937307,626,0xF0,0x00,0,1.57900012,1.57700002,0.07077111,0.07943317,0.12951815,0.15161522
7.937307,628,0xF0,0x00,0,1.58100009,1.57200003,0.07074302,0.07938893,0.12944649,0.15150237
7.937307,630,0xF0,0x00,0,1.58100009,1.57000005,0.07070714,0.07936662,0.12935495,0.15144545
7.937307,632,0xF0,0x00,0,1.57900012,1.56900012,0.07068697,0.07936886,0.12930350,0.15145117
7.937307,634,0xF0,0x00,0,1.58000004,1.56400013,0.07066696,0.07943787,0.12925245,0.15162721
7.937307,636,0xF0,0x00,0,1.57600009,1.57000005,0.07068801,0.07948812,0.12930615,0.15175541
7.944339,638,0xF0,0x00,0,1.57900012,1.57200003,0.07070477,0.07950538,0.12934889,0.15179946
7.944339,640,0xF0,0x00,0,1.57900012,1.57000005,0.07071859,0.07952156,0.12938415,0.15184072
7.944339,642,0xF0,0x00,0,1.57700002,1.57300007,0.07075074,0.07950630,0.12946618,0.15180179
7.944339,644,0xF0,0x00,0,1.58400011,1.56600010,0.07072309,0.07954224,0.12939563,0.15189347
7.944339,646,0xF0,0x00,0,1.58100009,1.57200003,0.07068768,0.07954971,0.12930530,0.15191254
7.944339,648,0xF0,0x00,0,1.57700002,1.57400012,0.07068840,0.07951837,0.12930714,0.15183258
7.944339,650,0xF0,0x00,0,1.58200002,1.57100010,0.07066147,0.07949286,0.12923844,0.15176749
7.944339,652,0xF0,0x00,0,1.57900012,1.56600010,0.07064755,0.07952233,0.12920292,0.15184267
7.944339,654,0xF0,0x00,0,1.58400011,1.56800008,0.07059120,0.07956658,0.12905920,0.15195557
7.944339,656,0xF0,0x00,0,1.57900012,1.56900012,0.07055902,0.07960974,0.12897709,0.15206565
7.948740,658,0xF0,0x00,0,1.57400012,1.57200003,0.07059368,0.07962118,0.12906553,0.15209484
7.948740,660,0xF0,0x00,0,1.57900012,1.56900012,0.07062019,0.07964261,0.12913315,0.15214951
7.948740,662,0xF0,0x00,0,1.58400011,1.57200003,0.07059022,0.07963970,0.12905669,0.15214209
7.948740,664,0xF0,0x00,0,1.58000004,1.57100010,0.07056487,0.07963131,0.12899201,0.15212068
7.948740,666,0xF0,0x00,0,1.57400012,1.56600010,0.07060388,0.07967040,0.12909155,0.15222041
7.948740,668,0xF0,0x00,0,1.57900012,1.57100010,0.07063309,0.07968879,0.12916605,0.15226734
7.948740,670,0xF0,0x00,0,1.57900012,1.56600010,0.07065567,0.07974458,0.12922364,0.15240966
7.948740,672,0xF0,0x00,0,1.57700002,1.57100010,0.07069413,0.07977299,0.12932177,0.15248212
7.948740,674,0xF0,0x00,0,1.57900012,1.57000005,0.07072206,0.07979364,0.12939301,0.15253480
7.948740,676,0xF0,0x00,0,1.57900012,1.56800008,0.07074291,0.07982944,0.12944618,0.15262613
7.952332,678,0xF0,0x00,0,1.58000004,1.57100010,0.07074879,0.07984409,0.12946120,0.15266348
7.952332,680,0xF0,0x00,0,1.57400012,1.57000005,0.07080609,0.07985512,0.12960735,0.15269163
7.952332,682,0xF0,0x00,0,1.57700002,1.57300007,0.07086541,0.07983315,0.12975869,0.15263559
7.952332,684,0xF0,0x00,0,1.58000004,1.56700003,0.07089487,0.07985124,0.12983385,0.15268174
7.952332,686,0xF0,0x00,0,1.58400011,1.56500006,0.07086400,0.07991537,0.12975511,0.15284535
7.952332,688,0xF0,0x00,0,1.57300007,1.57400012,0.07090660,0.07991686,0.12986378,0.15284912
7.952332,690,0xF0,0x00,0,1.57900012,1.56600010,0.07093504,0.07995941,0.12993632,0.15295769
7.952332,692,0xF0,0x00,0,1.57800007,1.56500006,0.07096424,0.08003823,0.13001081,0.15315877
7.952332,694,0xF0,0x00,0,1.58600008,1.57200003,0.07091212,0.08006832,0.12987787,0.15323551
7.952332,696,0xF0,0x00,0,1.57800007,1.57100010,0.07088958,0.08007684,0.12982035,0.15325725
7.956072,698,0xF0,0x00,0,1.57700002,1.56400013,0.07089654,0.08014269,0.12983811,0.15342523
7.956072,700,0xF0,0x00,0,1.58000004,1.56800008,0.07089189,0.08020410,0.12982623,0.15358189
7.956072,702,0xF0,0x00,0,1.58000004,1.57200003,0.07087980,0.08022127,0.12979540,0.15362567
7.956072,704,0xF0,0x00,0,1.58000004,1.57200003,0.07086304,0.08020971,0.12975264,0.15359619
7.956072,706,0xF0,0x00,0,1.57700002,1.57000005,0.07087400,0.08020011,0.12978061,0.15357171
7.956072,708,0xF0,0x00,0,1.57400012,1.56300008,0.07093330,0.08026320,0.12993188,0.15373266
7.956072,710,0xF0,0x00,0,1.57700002,1.56700003,0.07099261,0.08033179,0.13008319,0.15390764
7.956072,712,0xF0,0x00,0,1.57700002,1.57100010,0.07105134,0.08036248,0.13023300,0.15398593
7.956072,714,0xF0,0x00,0,1.58000004,1.57500005,0.07107852,0.08032764,0.13030234,0.15389705
7.956072,716,0xF0,0x00,0,1.57500005,1.57600009,0.07113601,0.08024070,0.13044900,0.15367524
7.960045,718,0xF0,0x00,0,1.58400011,1.56900012,0.07112077,0.08019233,0.13041012,0.15355186
7.960045,720,0xF0,0x00,0,1.57800007,1.56500006,0.07111990,0.08021010,0.13040790,0.15359721
7.960045,722,0xF0,0x00,0,1.58100009,1.56600010,0.07109773,0.08026019,0.13035135,0.15372497
7.960045,724,0xF0,0x00,0,1.57800007,1.57100010,0.07109262,0.08027966,0.13033831,0.15377465
7.960045,726,0xF0,0x00,0,1.58100009,1.56800008,0.07106800,0.08030976,0.13027552,0.15385142
7.960045,728,0xF0,0x00,0,1.58200002,1.56800008,0.07102086,0.08034639,0.13015525,0.15394488
7.960045,730,0xF0,0x00,0,1.57700002,1.56900012,0.07101060,0.08037668,0.13012910,0.15402216
7.960045,732,0xF0,0x00,0,1.57800007,1.57400012,0.07101407,0.08035164,0.13013794,0.15395826
7.960045,734,0xF0,0x00,0,1.57600009,1.57000005,0.07104672,0.08033189,0.13022123,0.15390788
7.960045,736,0xF0,0x00,0,1.58100009,1.57000005,0.07104694,0.08031577,0.13022178,0.15386675
7.964400,738,0xF0,0x00,0,1.57900012,1.56500006,0.07104660,0.08035310,0.13022092,0.15396199
7.964400,740,0xF0,0x00,0,1.58100009,1.56800008,0.07102553,0.08039396,0.13016717,0.15406621
7.964400,742,0xF0,0x00,0,1.58000004,1.57500005,0.07100148,0.08036536,0.13010582,0.15399326
7.964400,744,0xF0,0x00,0,1.58000004,1.57200003,0.07097577,0.08032281,0.13004021,0.15388472
7.964400,746,0xF0,0x00,0,1.57300007,1.57200003,0.07102055,0.08027169,0.13015446,0.15375432
7.964400,748,0xF0,0x00,0,1.57900012,1.57300007,0.07104924,0.08020537,0.13022764,0.15358514
7.964400,750,0xF0,0x00,0,1.58100009,1.57100010,0.07104687,0.08015030,0.13022159,0.15344465
7.964400,752,0xF0,0x00,0,1.57800007,1.57400012,0.07105505,0.08007248,0.13024247,0.15324610
7.964400,754,0xF0,0x00,0,1.57900012,1.57100010,0.07105976,0.08001134,0.13025449,0.15309015
7.964400,756,0xF0,0x00,0,1.57900012,1.57200003,0.07106219,0.07995139,0.13026069,0.15293722
7.979171,758,0xF0,0x00,0,1.58200002,1.56800008,0.07103256,0.07993358,0.13018510,0.15289178
7.979171,760,0xF0,0x00,0,1.57500005,1.56700003,0.07105386,0.07995334,0.13023944,0.15294218
7.979171,762,0xF0,0x00,0,1.57700002,1.57700002,0.07108743,0.07989524,0.13032509,0.15279396
7.979171,764,0xF0,0x00,0,1.57400012,1.57200003,0.07115915,0.07983844,0.13050804,0.15264907
7.979171,766,0xF0,0x00,0,1.57700002,1.57100010,0.07122418,0.07979324,0.13067392,0.15253378
7.979171,768,0xF0,0x00,0,1.57800007,1.56700003,0.07127403,0.07979676,0.13080111,0.15254276
7.979171,770,0xF0,0x00,0,1.57800007,1.57600009,0.07131360,0.07973997,0.13090205,0.15239787
7.979171,772,0xF0,0x00,0,1.58000004,1.56700003,0.07132575,0.07973654,0.13093303,0.15238912
7.979171,774,0xF0,0x00,0,1.58000004,1.57000005,0.07132008,0.07973701,0.13091856,0.15239032
7.979171,776,0xF0,0x00,0,1.57900012,1.57100010,0.07131316,0.07972980,0.13090090,0.15237194
8.011201,778,0xF0,0x00,0,1.57600009,1.57400012,0.07133607,0.07968715,0.13095936,0.15226313
8.011201,780,0xF0,0x00,0,1.58200002,1.56900012,0.07131686,0.07967300,0.13091037,0.15222704
8.011201,782,0xF0,0x00,0,1.57800007,1.56800008,0.07131142,0.07968758,0.13089648,0.15226424
8.011201,784,0xF0,0x00,0,1.58300006,1.56800008,0.07126398,0.07972055,0.13077547,0.15234834
8.011201,786,0xF0,0x00,0,1.57300007,1.56300008,0.07129182,0.07981599,0.13084647,0.15259181
8.011201,788,0xF0,0x00,0,1.58000004,1.57200003,0.07129662,0.07985907,0.13085872,0.15270171
8.011201,790,0xF0,0x00,0,1.57400012,1.57500005,0.07134763,0.07983735,0.13098885,0.15264630
8.011201,792,0xF0,0x00,0,1.58200002,1.57600009,0.07134644,0.07976387,0.13098581,0.15245885
8.011201,794,0xF0,0x00,0,1.57900012,1.56700003,0.07134214,0.07974942,0.13097484,0.15242198
8.011201,796,0xF0,0x00,0,1.58300006,1.57000005,0.07129512,0.07974266,0.13085489,0.15240473
8.040217,798,0xF0,0x00,0,1.58000004,1.57400012,0.07125159,0.07970016,0.13074385,0.15229632
8.040217,800,0xF0,0x00,0,1.57500005,1.57100010,0.07126169,0.07966560,0.13076961,0.15220816
8.040217,802,0xF0,0x00,0,1.58100009,1.57400012,0.07124516,0.07960595,0.13072746,0.15205599
8.040217,804,0xF0,0x00,0,1.58100009,1.57100010,0.07121162,0.07956129,0.13064189,0.15194207
8.040217,806,0xF0,0x00,0,1.58400011,1.56800008,0.07113688,0.07955732,0.13045122,0.15193194
8.040217,808,0xF0,0x00,0,1.58300006,1.56800008,0.07104650,0.07957965,0.13022067,0.15198889
8.040217,810,0xF0,0x00,0,1.58000004,1.57900012,0.07097752,0.07950664,0.13004470,0.15180263
8.040217,812,0xF0,0x00,0,1.57800007,1.57300007,0.07094344,0.07943399,0.12995775,0.15161730
8.040217,814,0xF0,0x00,0,1.58200002,1.57000005,0.07089145,0.07939287,0.12982515,0.15151243
8.040217,816,0xF0,0x00,0,1.58100009,1.56500006,0.07083864,0.07942348,0.12969041,0.15159051
8.047869,818,0xF0,0x00,0,1.57900012,1.57600009,0.07080621,0.07938796,0.12960766,0.15149990
8.047869,820,0xF0,0x00,0,1.58000004,1.57300007,0.07077707,0.07934072,0.12953332,0.15137938
8.047869,822,0xF0,0x00,0,1.57900012,1.56900012,0.07076053,0.07932714,0.12949115,0.15134473
8.047869,824,0xF0,0x00,0,1.58200002,1.57500005,0.07072174,0.07927428,0.12939218,0.15120989
8.047869,826,0xF0,0x00,0,1.57600009,1.57000005,0.07073011,0.07924757,0.12941353,0.15114176
8.047869,828,0xF0,0x00,0,1.58000004,1.56900012,0.07072806,0.07924820,0.12940833,0.15114336
8.047869,830,0xF0,0x00,0,1.58400011,1.57400012,0.07067857,0.07921550,0.12928206,0.15105996
8.047869,832,0xF0,0x00,0,1.58100009,1.57600009,0.07062953,0.07914127,0.12915696,0.15087058
8.047869,834,0xF0,0x00,0,1.57800007,1.56900012,0.07061185,0.07911231,0.12911186,0.15079670
8.047869,836,0xF0,0x00,0,1.58100009,1.57200003,0.07058402,0.07908229,0.12904087,0.15072012
8.051934,838,0xF0,0x00,0,1.58100009,1.57300007,0.07054993,0.07904170,0.12895389,0.15061657
8.051934,840,0xF0,0x00,0,1.57700002,1.57300007,0.07055289,0.07899471,0.12896146,0.15049669
8.051934,842,0xF0,0x00,0,1.58000004,1.57300007,0.07054917,0.07894406,0.12895195,0.15036750
8.051934,844,0xF0,0x00,0,1.57700002,1.57200003,0.07057174,0.07890177,0.12900953,0.15025961
8.051934,846,0xF0,0x00,0,1.58000004,1.57400012,0.07058048,0.07884491,0.12903182,0.15011457
8.051934,848,0xF0,0x00,0,1.58200002,1.57200003,0.07055982,0.07879962,0.12897913,0.14999902
8.051934,850,0xF0,0x00,0,1.58300006,1.56900012,0.07051022,0.07879281,0.12885261,0.14998166
8.051934,852,0xF0,0x00,0,1.58200002,1.56500006,0.07045265,0.07885166,0.12870573,0.15013179
8.051934,854,0xF0,0x00,0,1.58000004,1.57000005,0.07041088,0.07890134,0.12859920,0.15025851
8.051934,856,0xF0,0x00,0,1.57800007,1.57300007,0.07040013,0.07891401,0.12857175,0.15029085
8.056744,858,0xF0,0x00,0,1.57900012,1.57200003,0.07039930,0.07891288,0.12856963,0.15028796
8.056744,860,0xF0,0x00,0,1.58000004,1.57500005,0.07039469,0.07887228,0.12855789,0.15018438
8.056744,862,0xF0,0x00,0,1.57900012,1.56700003,0.07039789,0.07888814,0.12856604,0.15022485
8.056744,864,0xF0,0x00,0,1.58300006,1.56600010,0.07036533,0.07895046,0.12848300,0.15038382
8.056744,866,0xF0,0x00,0,1.58200002,1.56700003,0.07032023,0.07903192,0.12836793,0.15059164
8.056744,868,0xF0,0x00,0,1.57700002,1.56900012,0.07031842,0.07910454,0.12836333,0.15077688
8.056744,870,0xF0,0x00,0,1.57800007,1.57600009,0.07033439,0.07909938,0.12840405,0.15076372
8.056744,872,0xF0,0x00,0,1.57900012,1.57300007,0.07035147,0.07907466,0.12844764,0.15070066
8.056744,874,0xF0,0x00,0,1.58000004,1.56800008,0.07035892,0.07908852,0.12846662,0.15073600
8.064083,876,0xF0,0x00,0,1.58000004,1.56900012,0.07036006,0.07911693,0.12846956,0.15080850
8.064083,878,0xF0,0x00,0,1.58200002,1.57300007,0.07033676,0.07911370,0.12841010,0.15080026
8.064083,880,0xF0,0x00,0,1.57500005,1.57500005,0.07036923,0.07906970,0.12849292,0.15068801
8.064083,882,0xF0,0x00,0,1.58300006,1.56900012,0.07035585,0.07906097,0.12845881,0.15066575
8.064083,884,0xF0,0x00,0,1.58100009,1.56800008,0.07033341,0.07908528,0.12840155,0.15072776
8.064083,886,0xF0,0x00,0,1.58100009,1.57300007,0.07030533,0.07907972,0.12832993,0.15071359
8.064083,888,0xF0,0x00,0,1.57600009,1.57300007,0.07032487,0.07905494,0.12837976,0.15065037
8.064083,890,0xF0,0x00,0,1.57900012,1.57200003,0.07034435,0.07902820,0.12842947,0.15058215
8.064083,892,0xF0,0x00,0,1.58100009,1.57200003,0.07034322,0.07900047,0.12842658,0.15051140
8.064083,894,0xF0,0x00,0,1.57800007,1.57100010,0.07035937,0.07898258,0.12846778,0.15046576
8.069092,896,0xF0,0x00,0,1.58400011,1.56700003,0.07032537,0.07901196,0.12838106,0.15054071
8.069092,898,0xF0,0x00,0,1.58000004,1.57200003,0.07030012,0.07902061,0.12831664,0.15056279
8.069092,900,0xF0,0x00,0,1.58100009,1.56700003,0.07027058,0.07906674,0.12824129,0.15068045
8.069092,902,0xF0,0x00,0,1.58100009,1.57400012,0.07023858,0.07906525,0.12815963,0.15067665
8.069092,904,0xF0,0x00,0,1.58500004,1.57000005,0.07016455,0.07907381,0.12797078,0.15069848
8.069092,906,0xF0,0x00,0,1.58100009,1.57200003,0.07010492,0.07906839,0.12781867,0.15068468
8.069092,908,0xF0,0x00,0,1.58500004,1.57200003,0.07001443,0.07905401,0.12758784,0.15064800
8.069092,910,0xF0,0x00,0,1.58200002,1.56600010,0.06993552,0.07909513,0.12738654,0.15075287
8.069092,912,0xF0,0x00,0,1.58600008,1.56800008,0.06982413,0.07915125,0.12710238,0.15089604
8.069092,914,0xF0,0x00,0,1.58700013,1.56800008,0.06968272,0.07921649,0.12674165,0.15106247
8.076133,916,0xF0,0x00,0,1.58400011,1.57300007,0.06955396,0.07923599,0.12641317,0.15111223
8.076133,918,0xF0,0x00,0,1.58600008,1.56800008,0.06941430,0.07927674,0.12605688,0.15121618
8.076133,920,0xF0,0x00,0,1.58700013,1.57000005,0.06925882,0.07931040,0.12566027,0.15130204
8.076133,922,0xF0,0x00,0,1.58800006,1.57100010,0.06908455,0.07932895,0.12521568,0.15134937
8.076133,924,0xF0,0x00,0,1.58900011,1.57400012,0.06888973,0.07930700,0.12471870,0.15129338
8.076133,926,0xF0,0x00,0,1.58900011,1.56700003,0.06868364,0.07933047,0.12419295,0.15135323
8.076133,928,0xF0,0x00,0,1.58400011,1.57100010,0.06852333,0.07934224,0.12378399,0.15138327
8.076133,930,0xF0,0x00,0,1.58600008,1.56900012,0.06837380,0.07936672,0.12340255,0.15144572
8.076133,932,0xF0,0x00,0,1.58200002,1.56900012,0.06827351,0.07939916,0.12314671,0.15152848
8.076133,934,0xF0,0x00,0,1.58800006,1.57100010,0.06814489,0.07941602,0.12281859,0.15157148
8.082272,936,0xF0,0x00,0,1.58300006,1.57100010,0.06805023,0.07942266,0.12257711,0.15158841
8.082272,938,0xF0,0x00,0,1.58200002,1.57400012,0.06798864,0.07939207,0.12242001,0.15151037
8.082272,940,0xF0,0x00,0,1.58300006,1.56700003,0.06793883,0.07940909,0.12229293,0.15155381
8.082272,942,0xF0,0x00,0,1.58800006,1.57100010,0.06784618,0.07941591,0.12205657,0.15157120
8.082272,944,0xF0,0x00,0,1.58100009,1.57000005,0.06779815,0.07942626,0.12193406,0.15159759
8.082272,946,0xF0,0x00,0,1.58300006,1.57000005,0.06775903,0.07943878,0.12183426,0.15162955
8.082272,948,0xF0,0x00,0,1.58400011,1.56900012,0.06771587,0.07946277,0.12172415,0.15169072
8.082272,950,0xF0,0x00,0,1.58100009,1.56700003,0.06770110,0.07951428,0.12168647,0.15182213
8.082272,952,0xF0,0x00,0,1.58500004,1.56900012,0.06766405,0.07956266,0.12159197,0.15194555
8.082272,954,0xF0,0x00,0,1.58500004,1.57300007,0.06761300,0.07956776,0.12146173,0.15195857
8.087736,956,0xF0,0x00,0,1.58200002,1.57100010,0.06758400,0.07956526,0.12138776,0.15195221
8.087736,958,0xF0,0x00,0,1.57800007,1.56400013,0.06761029,0.07962921,0.12145481,0.15211535
8.087736,960,0xF0,0x00,0,1.58300006,1.56800008,0.06762103,0.07969463,0.12148222,0.15228221
8.087736,962,0xF0,0x00,0,1.58300006,1.56900012,0.06762163,0.07975014,0.12148376,0.15242381
8.087736,964,0xF0,0x00,0,1.58100009,1.57300007,0.06763607,0.07975793,0.12152057,0.15244369
8.087736,966,0xF0,0x00,0,1.58400011,1.56700003,0.06762870,0.07979599,0.12150180,0.15254079
8.087736,968,0xF0,0x00,0,1.58000004,1.56900012,0.06764811,0.07983281,0.12155131,0.15263471
8.087736,970,0xF0,0x00,0,1.58100009,1.57300007,0.06767441,0.07982770,0.12161840,0.15262169
8.087736,972,0xF0,0x00,0,1.57700002,1.56600010,0.06774564,0.07986692,0.12180009,0.15272172
8.087736,974,0xF0,0x00,0,1.57800007,1.57000005,0.06783494,0.07989357,0.12202792,0.15278973
8.095060,976,0xF0,0x00,0,1.58000004,1.56900012,0.06791462,0.07992204,0.12223117,0.15286236
8.095060,978,0xF0,0x00,0,1.58300006,1.57100010,0.06795671,0.07993102,0.12233854,0.15288526
8.095060,980,0xF0,0x00,0,1.57900012,1.56400013,0.06801488,0.07999865,0.12248692,0.15305778
8.095060,982,0xF0,0x00,0,1.58000004,1.57000005,0.06807263,0.08004230,0.12263426,0.15316913
8.095060,984,0xF0,0x00,0,1.58000004,1.57200003,0.06812953,0.08004965,0.12277942,0.15318787
8.095060,986,0xF0,0x00,0,1.57700002,1.56900012,0.06821587,0.08006407,0.12299967,0.15322468
8.095060,988,0xF0,0x00,0,1.57900012,1.56300008,0.06829994,0.08014405,0.12321413,0.15342869
8.095060,990,0xF0,0x00,0,1.58200002,1.56900012,0.06835113,0.08020437,0.12334470,0.15358257
8.095060,992,0xF0,0x00,0,1.58200002,1.56900012,0.06838058,0.08025140,0.12341984,0.15370253
8.095060,994,0xF0,0x00,0,1.58200002,1.57200003,0.06839570,0.08025879,0.12345843,0.15372141
8.102661,996,0xF0,0x00,0,1.58100009,1.57000005,0.06841162,0.08026093,0.12349903,0.15372688
8.102661,998,0xF0,0x00,0,1.57800007,1.56500006,0.06845845,0.08031060,0.12361848,0.15385357
8.102661,1000,0xF0,0x00,0,1.58200002,1.57000005,0.06848399,0.08033948,0.12368363,0.15392724
8.102661,1002,0xF0,0x00,0,1.58300006,1.56900012,0.06848535,0.08036484,0.12368712,0.15399194
8.102661,1004,0xF0,0x00,0,1.57700002,1.56700003,0.06853223,0.08040805,0.12380671,0.15410218
8.102661,1006,0xF0,0x00,0,1.58000004,1.56900012,0.06857743,0.08044197,0.12392201,0.15418869
8.102661,1008,0xF0,0x00,0,1.57900012,1.57200003,0.06863128,0.08043896,0.12405938,0.15418103
8.102661,1010,0xF0,0x00,0,1.57900012,1.57200003,0.06869015,0.08041218,0.12420957,0.15411270
8.102661,1012,0xF0,0x00,0,1.58000004,1.57500005,0.06874149,0.08033975,0.12434052,0.15392794
8.102661,1014,0xF0,0x00,0,1.58100009,1.57200003,0.06877724,0.08026918,0.12443174,0.15374792
8.108408,1016,0xF0,0x00,0,1.58100009,1.56900012,0.06880258,0.08023109,0.12449638,0.15365075
8.108408,1018,0xF0,0x00,0,1.58100009,1.56900012,0.06882094,0.08021435,0.12454320,0.15360804
8.108408,1020,0xF0,0x00,0,1.58000004,1.57100010,0.06884480,0.08019117,0.12460407,0.15354890
8.108408,1022,0xF0,0x00,0,1.58300006,1.57000005,0.06884139,0.08017427,0.12459538,0.15350579
8.108408,1024,0xF0,0x00,0,1.58000004,1.56900012,0.06885100,0.08017177,0.12461990,0.15349941
8.108408,1026,0xF0,0x00,0,1.58100009,1.57100010,0.06885872,0.08015822,0.12463959,0.15346484
8.108408,1028,0xF0,0x00,0,1.57900012,1.57000005,0.06888551,0.08014786,0.12470794,0.15343842
8.108408,1030,0xF0,0x00,0,1.57800007,1.57100010,0.06893453,0.08012948,0.12483299,0.15339153
8.108408,1032,0xF0,0x00,0,1.58300006,1.56800008,0.06894645,0.08013668,0.12486339,0.15340990
8.108408,1034,0xF0,0x00,0,1.57700002,1.56900012,0.06899544,0.08015012,0.12498836,0.15344419
8.112132,1036,0xF0,0x00,0,1.58100009,1.56600010,0.06902710,0.08019802,0.12506913,0.15356638
8.112132,1038,0xF0,0x00,0,1.57900012,1.57100010,0.06906762,0.08021671,0.12517250,0.15361406
8.112132,1040,0xF0,0x00,0,1.58100009,1.56900012,0.06909308,0.08023676,0.12523744,0.15366518
8.112132,1042,0xF0,0x00,0,1.58000004,1.57000005,0.06911875,0.08024728,0.12530293,0.15369204
8.112132,1044,0xF0,0x00,0,1.57700002,1.57000005,0.06917485,0.08025154,0.12544604,0.15370291
8.112132,1046,0xF0,0x00,0,1.57900012,1.57000005,0.06922964,0.08025173,0.12558581,0.15370339
8.112132,1048,0xF0,0x00,0,1.57900012,1.57400012,0.06928303,0.08020853,0.12572202,0.15359320
8.112132,1050,0xF0,0x00,0,1.58100009,1.56600010,0.06931459,0.08021929,0.12580253,0.15362063
8.112132,1052,0xF0,0x00,0,1.58100009,1.57500005,0.06933175,0.08017305,0.12584630,0.15350269
8.112132,1054,0xF0,0x00,0,1.58000004,1.57200003,0.06934963,0.08012108,0.12589192,0.15337008
8.115765,1056,0xF0,0x00,0,1.58400011,1.56900012,0.06932703,0.08009650,0.12583427,0.15330739
8.115765,1058,0xF0,0x00,0,1.58300006,1.56900012,0.06928875,0.08008984,0.12573659,0.15329042
8.115765,1060,0xF0,0x00,0,1.57500005,1.57400012,0.06932223,0.08004387,0.12582201,0.15317315
8.115765,1062,0xF0,0x00,0,1.57800007,1.57300007,0.06937112,0.07998320,0.12594673,0.15301837
8.115765,1064,0xF0,0x00,0,1.57600009,1.56500006,0.06944983,0.07999517,0.12614751,0.15304890
8.115765,1066,0xF0,0x00,0,1.58000004,1.57500005,0.06950621,0.07995199,0.12629135,0.15293875
8.115765,1068,0xF0,0x00,0,1.57700002,1.57100010,0.06957819,0.07991444,0.12647498,0.15284294
8.115765,1070,0xF0,0x00,0,1.58300006,1.57000005,0.06959837,0.07989107,0.12652645,0.15278333
8.115765,1072,0xF0,0x00,0,1.58100009,1.56800008,0.06960529,0.07989749,0.12654410,0.15279971
8.115765,1074,0xF0,0x00,0,1.57600009,1.57600009,0.06965453,0.07984153,0.12666972,0.15265697
8.119352,1076,0xF0,0x00,0,1.58000004,1.56700003,0.06968982,0.07983761,0.12675974,0.15264697
8.119352,1078,0xF0,0x00,0,1.57300007,1.57300007,0.06978707,0.07980617,0.12700783,0.15256676
8.119352,1080,0xF0,0x00,0,1.58200002,1.57200003,0.06983161,0.07976748,0.12712145,0.15246806
8.119352,1082,0xF0,0x00,0,1.57900012,1.56900012,0.06987225,0.07975508,0.12722513,0.15243641
8.119352,1084,0xF0,0x00,0,1.57900012,1.57400012,0.06990997,0.07970881,0.12732135,0.15231839
8.119352,1086,0xF0,0x00,0,1.57900012,1.56800008,0.06994540,0.07970230,0.12741174,0.15230177
8.119352,1088,0xF0,0x00,0,1.58000004,1.57800007,0.06996882,0.07961962,0.12747148,0.15209085
8.119352,1090,0xF0,0x00,0,1.58000004,1.56900012,0.06998425,0.07958034,0.12751085,0.15199065
8.119352,1092,0xF0,0x00,0,1.58200002,1.56800008,0.06997398,0.07957964,0.12748465,0.15198888
8.119352,1094,0xF0,0x00,0,1.57900012,1.57200003,0.06997781,0.07956310,0.12749442,0.15194669
8.125783,1096,0xF0,0x00,0,1.57700002,1.57300007,0.07001108,0.07952631,0.12757929,0.15185283
8.125783,1098,0xF0,0x00,0,1.57900012,1.57300007,0.07004262,0.07947683,0.12765974,0.15172662
8.125783,1100,0xF0,0x00,0,1.57900012,1.57200003,0.07007272,0.07942986,0.12773652,0.15160678
8.125783,1102,0xF0,0x00,0,1.58000004,1.57500005,0.07009140,0.07935441,0.12778418,0.15141430
8.125783,1104,0xF0,0x00,0,1.57500005,1.57100010,0.07015346,0.07930212,0.12794250,0.15128092
8.125783,1106,0xF0,0x00,0,1.57900012,1.57700002,0.07020213,0.07920417,0.12806666,0.15103105
8.125783,1108,0xF0,0x00,0,1.57900012,1.57300007,0.07024166,0.07911851,0.12816750,0.15081254
8.125783,1110,0xF0,0x00,0,1.58000004,1.57100010,0.07026470,0.07906204,0.12822630,0.15066846
8.125783,1112,0xF0,0x00,0,1.58000004,1.56300008,0.07027687,0.07910647,0.12825732,0.15078181
8.125783,1114,0xF0,0x00,0,1.57900012,1.57400012,0.07029209,0.07910349,0.12829615,0.15077421
8.135811,1116,0xF0,0x00,0,1.58000004,1.57300007,0.07029893,0.07908013,0.12831360,0.15071464
8.135811,1118,0xF0,0x00,0,1.57600009,1.57000005,0.07034106,0.07907443,0.12842107,0.15070009
8.135811,1120,0xF0,0x00,0,1.57800007,1.57700002,0.07038514,0.07900887,0.12853351,0.15053283
8.135811,1122,0xF0,0x00,0,1.57700002,1.57300007,0.07044022,0.07894609,0.12867403,0.15037268
8.135811,1124,0xF0,0x00,0,1.58000004,1.57000005,0.07047127,0.07891633,0.12875324,0.15029675
8.135811,1126,0xF0,0x00,0,1.57500005,1.56700003,0.07053745,0.07893873,0.12892206,0.15035389
8.135811,1128,0xF0,0x00,0,1.58200002,1.57200003,0.07055429,0.07894362,0.12896504,0.15036637
8.135811,1130,0xF0,0x00,0,1.57700002,1.57500005,0.07059008,0.07890659,0.12905632,0.15027191
8.135811,1132,0xF0,0x00,0,1.59000003,1.56900012,0.07050527,0.07890403,0.12883997,0.15026537
8.135811,1134,0xF0,0x00,0,1.58000004,1.57100010,0.07044540,0.07890335,0.12868723,0.15026364
8.145713,1136,0xF0,0x00,0,1.58000004,1.57500005,0.07040223,0.07886314,0.12857711,0.15016106
8.145713,1138,0xF0,0x00,0,1.57800007,1.57100010,0.07039066,0.07883859,0.12854759,0.15009844
8.145713,1140,0xF0,0x00,0,1.57800007,1.57000005,0.07039958,0.07883458,0.12857036,0.15008821
8.145713,1142,0xF0,0x00,0,1.57800007,1.57400012,0.07042165,0.07880311,0.12862666,0.15000792
8.145713,1144,0xF0,0x00,0,1.58600008,1.57100010,0.07037046,0.07878481,0.12849607,0.14996125
8.145713,1146,0xF0,0x00,0,1.58500004,1.56800008,0.07028271,0.07880576,0.12827221,0.15001470
8.145713,1148,0xF0,0x00,0,1.57700002,1.57300007,0.07025377,0.07880088,0.12819840,0.15000224
8.145713,1150,0xF0,0x00,0,1.58400011,1.57000005,0.07019176,0.07880995,0.12804021,0.15002537
8.145713,1152,0xF0,0x00,0,1.57700002,1.57000005,0.07018036,0.07882793,0.12801114,0.15007123
8.155082,1154,0xF0,0x00,0,1.57900012,1.57100010,0.07018136,0.07884128,0.12801367,0.15010530
8.155082,1156,0xF0,0x00,0,1.57900012,1.57300007,0.07019035,0.07883113,0.12803660,0.15007941
8.155082,1158,0xF0,0x00,0,1.57700002,1.57200003,0.07022477,0.07881611,0.12812442,0.15004109
8.155082,1160,0xF0,0x00,0,1.58000004,1.56600010,0.07024468,0.07885924,0.12817521,0.15015112
8.155082,1162,0xF0,0x00,0,1.57600009,1.57000005,0.07029580,0.07889869,0.12830560,0.15025176
8.155082,1164,0xF0,0x00,0,1.57900012,1.57200003,0.07033595,0.07891499,0.12840803,0.15029332
8.155082,1166,0xF0,0x00,0,1.57400012,1.57100010,0.07041956,0.07892636,0.12862134,0.15032235
8.155082,1168,0xF0,0x00,0,1.58200002,1.57100010,0.07044886,0.07893445,0.12869607,0.15034300
8.155082,1170,0xF0,0x00,0,1.57800007,1.57200003,0.07048357,0.07893015,0.12878461,0.15033202
8.155082,1172,0xF0,0x00,0,1.57800007,1.57200003,0.07052141,0.07891790,0.12888114,0.15030076
8.165128,1174,0xF0,0x00,0,1.57800007,1.56900012,0.07056089,0.07893120,0.12898186,0.15033470
8.165128,1176,0xF0,0x00,0,1.58300006,1.56800008,0.07055008,0.07897106,0.12895428,0.15043637
8.165128,1178,0xF0,0x00,0,1.57900012,1.56700003,0.07054769,0.07903782,0.12894818,0.15060669
8.165128,1180,0xF0,0x00,0,1.57600009,1.56800008,0.07058132,0.07911108,0.12903397,0.15079355
8.165128,1182,0xF0,0x00,0,1.57900012,1.57100010,0.07060728,0.07915721,0.12910020,0.15091124
8.165128,1184,0xF0,0x00,0,1.58000004,1.57300007,0.07061785,0.07916500,0.12912716,0.15093112
8.165128,1186,0xF0,0x00,0,1.57800007,1.56600010,0.07063875,0.07921928,0.12918048,0.15106960
8.165128,1188,0xF0,0x00,0,1.58100009,1.57400012,0.07063553,0.07922150,0.12917228,0.15107526
8.165128,1190,0xF0,0x00,0,1.58100009,1.56600010,0.07061680,0.07927162,0.12912448,0.15120311
8.165128,1192,0xF0,0x00,0,1.57600009,1.56500006,0.07063918,0.07936233,0.12918158,0.15143451
8.175090,1194,0xF0,0x00,0,1.58000004,1.57200003,0.07064711,0.07940697,0.12920180,0.15154839
8.175090,1196,0xF0,0x00,0,1.57400012,1.57100010,0.07070675,0.07943162,0.12935397,0.15161128
8.175090,1198,0xF0,0x00,0,1.57500005,1.57200003,0.07078899,0.07943294,0.12956375,0.15161465
8.175090,1200,0xF0,0x00,0,1.58000004,1.57100010,0.07083400,0.07942938,0.12967858,0.15160556
8.175090,1202,0xF0,0x00,0,1.57900012,1.57400012,0.07086474,0.07939214,0.12975699,0.15151057
8.175090,1204,0xF0,0x00,0,1.58400011,1.57300007,0.07083500,0.07934374,0.12968113,0.15138710
8.175090,1206,0xF0,0x00,0,1.57700002,1.57300007,0.07083787,0.07928863,0.12968844,0.15124650
8.175090,1208,0xF0,0x00,0,1.58100009,1.56600010,0.07082099,0.07930107,0.12964539,0.15127824
8.175090,1210,0xF0,0x00,0,1.58100009,1.57200003,0.07079155,0.07929584,0.12957028,0.15126491
8.175090,1212,0xF0,0x00,0,1.58000004,1.57000005,0.07076449,0.07929964,0.12950125,0.15127459
8.185058,1214,0xF0,0x00,0,1.57800007,1.56800008,0.07075962,0.07932961,0.12948883,0.15135105
8.185058,1216,0xF0,0x00,0,1.58000004,1.56500006,0.07074873,0.07940672,0.12946105,0.15154774
8.185058,1218,0xF0,0x00,0,1.58300006,1.57100010,0.07070351,0.07945232,0.12934570,0.15166408
8.185058,1220,0xF0,0x00,0,1.58100009,1.57200003,0.07065698,0.07946695,0.12922698,0.15170139
8.185058,1222,0xF0,0x00,0,1.58100009,1.56200004,0.07061007,0.07956333,0.12910733,0.15194726
8.185058,1224,0xF0,0x00,0,1.57800007,1.56900012,0.07059396,0.07964015,0.12906623,0.15214324
8.185058,1226,0xF0,0x00,0,1.58000004,1.56900012,0.07057752,0.07970357,0.12902427,0.15230502
8.185058,1228,0xF0,0x00,0,1.57800007,1.56700003,0.07058140,0.07977808,0.12903419,0.15249509
8.185058,1230,0xF0,0x00,0,1.58100009,1.57000005,0.07056779,0.07982841,0.12899946,0.15262349
8.185058,1232,0xF0,0x00,0,1.57500005,1.56800008,0.07060417,0.07988301,0.12909226,0.15276277
8.195074,1234,0xF0,0x00,0,1.57600009,1.57200003,0.07066224,0.07989905,0.12924039,0.15280369
8.195074,1236,0xF0,0x00,0,1.57600009,1.56200004,0.07073371,0.07999194,0.12942272,0.15304068
8.195074,1238,0xF0,0x00,0,1.57700002,1.57000005,0.07080292,0.08005196,0.12959929,0.15319377
8.195074,1240,0xF0,0x00,0,1.58100009,1.56800008,0.07082921,0.08011053,0.12966634,0.15334319
8.195074,1242,0xF0,0x00,0,1.57700002,1.57000005,0.07086828,0.08014719,0.12976603,0.15343672
8.195074,1244,0xF0,0x00,0,1.57700002,1.57100010,0.07091521,0.08015916,0.12988575,0.15346724
8.195074,1246,0xF0,0x00,0,1.57800007,1.57000005,0.07095655,0.08016526,0.12999120,0.15348279
8.195074,1248,0xF0,0x00,0,1.57700002,1.57200003,0.07100404,0.08014713,0.13011235,0.15343656
8.195074,1250,0xF0,0x00,0,1.57800007,1.57100010,0.07104483,0.08012374,0.13021639,0.15337689
8.195074,1252,0xF0,0x00,0,1.57900012,1.57300007,0.07107069,0.08007683,0.13028236,0.15325722
8.205175,1254,0xF0,0x00,0,1.57500005,1.56500006,0.07112741,0.08009671,0.13042706,0.15330794
8.205175,1256,0xF0,0x00,0,1.58000004,1.56900012,0.07115252,0.08011875,0.13049111,0.15336415
8.205175,1258,0xF0,0x00,0,1.57800007,1.57000005,0.07117735,0.08013175,0.13055445,0.15339734
8.205175,1260,0xF0,0x00,0,1.57900012,1.57900012,0.07119156,0.08004710,0.13059072,0.15318137
8.205175,1262,0xF0,0x00,0,1.57900012,1.57200003,0.07119878,0.07997163,0.13060914,0.15298885
8.205175,1264,0xF0,0x00,0,1.57400012,1.56700003,0.07125236,0.07995378,0.13074581,0.15294331
8.205175,1266,0xF0,0x00,0,1.57800007,1.56900012,0.07129455,0.07995293,0.13085343,0.15294114
8.205175,1268,0xF0,0x00,0,1.58100009,1.56400013,0.07129838,0.08001398,0.13086322,0.15309690
8.205175,1270,0xF0,0x00,0,1.57900012,1.57000005,0.07129782,0.08005324,0.13086177,0.15319704
8.205175,1272,0xF0,0x00,0,1.58000004,1.57100010,0.07128423,0.08006784,0.13082711,0.15323427
8.220968,1274,0xF0,0x00,0,1.58400011,1.57300007,0.07122162,0.08004599,0.13066740,0.15317854
8.220968,1276,0xF0,0x00,0,1.57800007,1.57200003,0.07118915,0.08001105,0.13058457,0.15308940
8.220968,1278,0xF0,0x00,0,1.58000004,1.57300007,0.07115608,0.07995782,0.13050021,0.15295362
8.220968,1280,0xF0,0x00,0,1.57500005,1.57200003,0.07117391,0.07990353,0.13054569,0.15281512
8.220968,1282,0xF0,0x00,0,1.57900012,1.57100010,0.07118364,0.07985929,0.13057052,0.15270227
8.220968,1284,0xF0,0x00,0,1.58600008,1.56500006,0.07111673,0.07988313,0.13039982,0.15276308
8.220968,1286,0xF0,0x00,0,1.57800007,1.56600010,0.07108255,0.07994045,0.13031264,0.15290932
8.220968,1288,0xF0,0x00,0,1.57700002,1.57300007,0.07108004,0.07994748,0.13030621,0.15292723
8.220968,1290,0xF0,0x00,0,1.57600009,1.57300007,0.07110816,0.07992198,0.13037796,0.15286221
8.220968,1292,0xF0,0x00,0,1.57700002,1.57400012,0.07114559,0.07986557,0.13047343,0.15271829
8.241650,1294,0xF0,0x00,0,1.58000004,1.56900012,0.07115806,0.07984073,0.13050525,0.15265492
8.241650,1296,0xF0,0x00,0,1.57900012,1.57200003,0.07116450,0.07980594,0.13052167,0.15256616
8.241650,1298,0xF0,0x00,0,1.58200002,1.57400012,0.07113641,0.07974472,0.13045001,0.15241000
8.241650,1300,0xF0,0x00,0,1.58100009,1.56900012,0.07109652,0.07971800,0.13034825,0.15234184
8.241650,1302,0xF0,0x00,0,1.58200002,1.57000005,0.07103923,0.07970364,0.13020211,0.15230520
8.241650,1304,0xF0,0x00,0,1.57600009,1.56800008,0.07103243,0.07971776,0.13018475,0.15234123
8.241650,1306,0xF0,0x00,0,1.58000004,1.56700003,0.07101752,0.07976032,0.13014673,0.15244979
8.241650,1308,0xF0,0x00,0,1.57800007,1.57700002,0.07101791,0.07971890,0.13014774,0.15234412
8.241650,1310,0xF0,0x00,0,1.57800007,1.57700002,0.07102817,0.07962371,0.13017391,0.15210131
8.241650,1312,0xF0,0x00,0,1.57500005,1.57200003,0.07107526,0.07954575,0.13029402,0.15190242
8.265438,1314,0xF0,0x00,0,1.57800007,1.57300007,0.07111506,0.07946951,0.13039556,0.15170793
8.265438,1316,0xF0,0x00,0,1.57800007,1.57000005,0.07114976,0.07942572,0.13048407,0.15159623
8.265438,1318,0xF0,0x00,0,1.58100009,1.56900012,0.07115024,0.07941351,0.13048531,0.15156507
8.265438,1320,0xF0,0x00,0,1.57600009,1.56700003,0.07117959,0.07944217,0.13056019,0.15163819
8.265438,1322,0xF0,0x00,0,1.58100009,1.56900012,0.07117632,0.07947654,0.13055184,0.15172584
8.265438,1324,0xF0,0x00,0,1.57700002,1.57600009,0.07119279,0.07944290,0.13059384,0.15164006
8.265438,1326,0xF0,0x00,0,1.58300006,1.57000005,0.07116069,0.07942688,0.13051195,0.15159918
8.265438,1328,0xF0,0x00,0,1.57900012,1.56900012,0.07113834,0.07943258,0.13045496,0.15161371
8.265438,1330,0xF0,0x00,0,1.57700002,1.57400012,0.07114290,0.07940127,0.13046658,0.15153384
8.265438,1332,0xF0,0x00,0,1.57800007,1.56900012,0.07115456,0.07939736,0.13049634,0.15152387
8.271213,1334,0xF0,0x00,0,1.57900012,1.57500005,0.07116052,0.07935003,0.13051152,0.15140313
8.271213,1336,0xF0,0x00,0,1.57700002,1.57200003,0.07118310,0.07930574,0.13056913,0.15129015
8.271213,1338,0xF0,0x00,0,1.57800007,1.57300007,0.07120600,0.07925367,0.13062754,0.15115732
8.271213,1340,0xF0,0x00,0,1.58100009,1.56800008,0.07119829,0.07924805,0.13060789,0.15114298
8.271213,1342,0xF0,0x00,0,1.57700002,1.57200003,0.07121167,0.07923171,0.13064203,0.15110129
8.271213,1344,0xF0,0x00,0,1.58100009,1.57000005,0.07119777,0.07922899,0.13060656,0.15109436
8.271213,1346,0xF0,0x00,0,1.57500005,1.57200003,0.07122754,0.07921471,0.13068250,0.15105794
8.271213,1348,0xF0,0x00,0,1.58000004,1.57400012,0.07123424,0.07917275,0.13069959,0.15095088
8.271213,1350,0xF0,0x00,0,1.57600009,1.57200003,0.07126674,0.07913372,0.13078250,0.15085132
8.271213,1352,0xF0,0x00,0,1.57400012,1.57400012,0.07133593,0.07907661,0.13095902,0.15070564
8.275249,1354,0xF0,0x00,0,1.57700002,1.57100010,0.07139754,0.07903898,0.13111617,0.15060963
8.275249,1356,0xF0,0x00,0,1.57800007,1.57600009,0.07144342,0.07896335,0.13123320,0.15041672
8.275249,1358,0xF0,0x00,0,1.57500005,1.57000005,0.07150926,0.07892513,0.13140117,0.15031920
8.275249,1360,0xF0,0x00,0,1.57900012,1.57400012,0.07154655,0.07887065,0.13149630,0.15018024
8.275249,1362,0xF0,0x00,0,1.58000004,1.57300007,0.07155485,0.07881644,0.13151747,0.15004194
8.275249,1364,0xF0,0x00,0,1.57800007,1.57300007,0.07156474,0.07876296,0.13154271,0.14990550
8.275249,1366,0xF0,0x00,0,1.57800007,1.57200003,0.07157556,0.07872067,0.13157031,0.14979763
8.275249,1368,0xF0,0x00,0,1.57400012,1.57200003,0.07162762,0.07868605,0.13170311,0.14970931
8.275249,1370,0xF0,0x00,0,1.57800007,1.57500005,0.07166500,0.07862616,0.13179846,0.14955652
8.275249,1372,0xF0,0x00,0,1.58400011,1.57000005,0.07163139,0.07860150,0.13171273,0.14949363
8.281207,1374,0xF0,0x00,0,1.57900012,1.57000005,0.07160328,0.07859985,0.13164102,0.14948940
8.281207,1376,0xF0,0x00,0,1.57900012,1.57000005,0.07157899,0.07861304,0.13157906,0.14952306
8.281207,1378,0xF0,0x00,0,1.57500005,1.57200003,0.07159817,0.07861531,0.13162799,0.14952885
8.281207,1380,0xF0,0x00,0,1.57700002,1.57300007,0.07162483,0.07860031,0.13169600,0.14949058
8.281207,1382,0xF0,0x00,0,1.57800007,1.57100010,0.07164586,0.07859471,0.13174963,0.14947629
8.281207,1384,0xF0,0x00,0,1.58200002,1.57200003,0.07162227,0.07858503,0.13168947,0.14945161
8.281207,1386,0xF0,0x00,0,1.58000004,1.57100010,0.07159053,0.07858301,0.13160849,0.14944646
8.281207,1388,0xF0,0x00,0,1.58000004,1.56600010,0.07155384,0.07863690,0.13151491,0.14958394
8.281207,1390,0xF0,0x00,0,1.58400011,1.57000005,0.07147358,0.07868556,0.13131014,0.14970806
8.281207,1392,0xF0,0x00,0,1.58400011,1.57400012,0.07136602,0.07868959,0.13103576,0.14971834
8.302547,1394,0xF0,0x00,0,1.58600008,1.57000005,0.07122157,0.07870554,0.13066727,0.14975904
8.302547,1396,0xF0,0x00,0,1.58200002,1.57300007,0.07109554,0.07869846,0.13034576,0.14974096
8.302547,1398,0xF0,0x00,0,1.58700013,1.56900012,0.07093174,0.07871734,0.12992790,0.14978912
8.302547,1400,0xF0,0x00,0,1.58000004,1.56900012,0.07081656,0.07875277,0.12963408,0.14987952
8.302547,1402,0xF0,0x00,0,1.58700013,1.57300007,0.07066260,0.07875778,0.12924133,0.14989229
8.302547,1404,0xF0,0x00,0,1.58600008,1.56900012,0.07049538,0.07878385,0.12881474,0.14995879
8.302547,1406,0xF0,0x00,0,1.58300006,1.57400012,0.07035187,0.07877231,0.12844864,0.14992936
8.302547,1408,0xF0,0x00,0,1.58400011,1.56600010,0.07021493,0.07881812,0.12809931,0.15004623
8.302547,1410,0xF0,0x00,0,1.58600008,1.56800008,0.07006325,0.07888010,0.12771237,0.15020433
8.302547,1412,0xF0,0x00,0,1.58600008,1.56800008,0.06990360,0.07895188,0.12730511,0.15038745
8.311982,1414,0xF0,0x00,0,1.58400011,1.57300007,0.06976082,0.07897831,0.12694088,0.15045486
8.311982,1416,0xF0,0x00,0,1.58500004,1.57200003,0.06962019,0.07898539,0.12658212,0.15047292
8.311982,1418,0xF0,0x00,0,1.58200002,1.57200003,0.06951294,0.07897992,0.12630852,0.15045898
8.311982,1420,0xF0,0x00,0,1.58300006,1.56800008,0.06941814,0.07900716,0.12606668,0.15052846
8.311982,1422,0xF0,0x00,0,1.58500004,1.57000005,0.06931195,0.07903485,0.12579580,0.15059911
8.311982,1424,0xF0,0x00,0,1.58200002,1.57300007,0.06923007,0.07903198,0.12558693,0.15059179
8.311982,1426,0xF0,0x00,0,1.58200002,1.56700003,0.06916471,0.07907056,0.12542018,0.15069020
8.311982,1428,0xF0,0x00,0,1.58200002,1.57000005,0.06911067,0.07910492,0.12528232,0.15077786
8.311982,1430,0xF0,0x00,0,1.58100009,1.56900012,0.06907467,0.07914640,0.12519048,0.15088367
8.311982,1432,0xF0,0x00,0,1.58500004,1.57500005,0.06900992,0.07913092,0.12502532,0.15084417
8.316623,1434,0xF0,0x00,0,1.58300006,1.57200003,0.06894767,0.07910940,0.12486652,0.15078929
8.316623,1436,0xF0,0x00,0,1.58300006,1.57000005,0.06888766,0.07910459,0.12471341,0.15077703
8.316623,1438,0xF0,0x00,0,1.58300006,1.56900012,0.06882970,0.07912080,0.12456556,0.15081836
8.316623,1440,0xF0,0x00,0,1.58200002,1.57000005,0.06878385,0.07914022,0.12444860,0.15086789
8.316623,1442,0xF0,0x00,0,1.58200002,1.57000005,0.06874628,0.07916150,0.12435276,0.15092221
8.316623,1444,0xF0,0x00,0,1.58700013,1.57000005,0.06866349,0.07918378,0.12414157,0.15097903
8.316623,1446,0xF0,0x00,0,1.58300006,1.57100010,0.06859312,0.07919628,0.12396204,0.15101092
8.316623,1448,0xF0,0x00,0,1.58200002,1.56400013,0.06854168,0.07927367,0.12383080,0.15120834
8.316623,1450,0xF0,0x00,0,1.58100009,1.57000005,0.06851315,0.07933100,0.12375803,0.15135460
8.316623,1452,0xF0,0x00,0,1.58100009,1.57000005,0.06849970,0.07937481,0.12372372,0.15146635
8.321573,1454,0xF0,0x00,0,1.58400011,1.56900012,0.06846555,0.07941964,0.12363661,0.15158071
8.321573,1456,0xF0,0x00,0,1.58400011,1.56700003,0.06841840,0.07948504,0.12351632,0.15174754
8.321573,1458,0xF0,0x00,0,1.58300006,1.56300008,0.06837352,0.07960380,0.12340184,0.15205051
8.321573,1460,0xF0,0x00,0,1.58600008,1.57000005,0.06830001,0.07968447,0.12321430,0.15225630
8.321573,1462,0xF0,0x00,0,1.58500004,1.57000005,0.06821895,0.07973973,0.12300751,0.15239726
8.321573,1464,0xF0,0x00,0,1.58000004,1.56900012,0.06818479,0.07978822,0.12292039,0.15252097
8.321573,1466,0xF0,0x00,0,1.57800007,1.57300007,0.06820162,0.07979110,0.12296332,0.15252832
8.321573,1468,0xF0,0x00,0,1.58300006,1.57100010,0.06820025,0.07978489,0.12295981,0.15251248
8.321573,1470,0xF0,0x00,0,1.58000004,1.57000005,0.06821769,0.07978308,0.12300430,0.15250786
8.321573,1472,0xF0,0x00,0,1.58200002,1.56700003,0.06822672,0.07981469,0.12302735,0.15258849
8.325607,1474,0xF0,0x00,0,1.58000004,1.57000005,0.06825063,0.07983697,0.12308833,0.15264533
8.325607,1476,0xF0,0x00,0,1.57700002,1.57600009,0.06831443,0.07979187,0.12325110,0.15253028
8.325607,1478,0xF0,0x00,0,1.58200002,1.56900012,0.06835240,0.07977509,0.12334795,0.15248747
8.325607,1480,0xF0,0x00,0,1.58100009,1.57400012,0.06838349,0.07972579,0.12342728,0.15236171
8.325607,1482,0xF0,0x00,0,1.57800007,1.57000005,0.06844040,0.07969677,0.12357245,0.15228769
8.325607,1484,0xF0,0x00,0,1.58500004,1.57300007,0.06844206,0.07965057,0.12357669,0.15216982
8.325607,1486,0xF0,0x00,0,1.58200002,1.56800008,0.06843863,0.07964470,0.12356795,0.15215485
8.325607,1488,0xF0,0x00,0,1.57500005,1.57600009,0.06850328,0.07958340,0.12373284,0.15199846
8.325607,1490,0xF0,0x00,0,1.58200002,1.56900012,0.06853985,0.07955828,0.12382615,0.15193437
8.329462,1492,0xF0,0x00,0,1.58000004,1.56900012,0.06857833,0.07955676,0.12392430,0.15193050
8.329462,1494,0xF0,0x00,0,1.58000004,1.57000005,0.06861763,0.07956029,0.12402457,0.15193951
8.329462,1496,0xF0,0x00,0,1.57900012,1.56800008,0.06866727,0.07958742,0.12415119,0.15200873
8.329462,1498,0xF0,0x00,0,1.58100009,1.57100010,0.06870268,0.07959895,0.12424153,0.15203813
8.329462,1500,0xF0,0x00,0,1.58100009,1.57300007,0.06872856,0.07957990,0.12430754,0.15198955
8.329462,1502,0xF0,0x00,0,1.57800007,1.57400012,0.06877859,0.07953114,0.12443517,0.15186515
8.329462,1504,0xF0,0x00,0,1.58400011,1.56400013,0.06878256,0.07956558,0.12444530,0.15195301
8.329462,1506,0xF0,0x00,0,1.58100009,1.57000005,0.06878734,0.07959224,0.12445749,0.15202101
8.329462,1508,0xF0,0x00,0,1.57800007,1.57200003,0.06882315,0.07959320,0.12454885,0.15202348
8.329462,1510,0xF0,0x00,0,1.57600009,1.56800008,0.06889901,0.07961835,0.12474236,0.15208763
8.334130,1512,0xF0,0x00,0,1.58300006,1.56600010,0.06892860,0.07967922,0.12481786,0.15224291
8.334130,1514,0xF0,0x00,0,1.57800007,1.56900012,0.06897899,0.07973195,0.12494639,0.15237743
8.334130,1516,0xF0,0x00,0,1.57800007,1.57000005,0.06904228,0.07976870,0.12510785,0.15247118
8.334130,1518,0xF0,0x00,0,1.58200002,1.56700003,0.06907249,0.07982534,0.12518492,0.15261567
8.334130,1520,0xF0,0x00,0,1.57900012,1.57000005,0.06911162,0.07986366,0.12528476,0.15271342
8.334130,1522,0xF0,0x00,0,1.57900012,1.56800008,0.06915611,0.07991015,0.12539823,0.15283202
8.334130,1524,0xF0,0x00,0,1.57400012,1.57000005,0.06925455,0.07994106,0.12564936,0.15291087
8.334130,1526,0xF0,0x00,0,1.58100009,1.56800008,0.06931546,0.07998198,0.12580475,0.15301526
8.334130,1528,0xF0,0x00,0,1.57500005,1.57100010,0.06941269,0.07999838,0.12605277,0.15305710
8.334130,1530,0xF0,0x00,0,1.57900012,1.57800007,0.06949159,0.07992747,0.12625405,0.15287620
8.344118,1532,0xF0,0x00,0,1.57600009,1.56500006,0.06958843,0.07993339,0.12650110,0.15289129
8.344118,1534,0xF0,0x00,0,1.57700002,1.56700003,0.06968568,0.07996846,0.12674917,0.15298076
8.344118,1536,0xF0,0x00,0,1.57700002,1.57400012,0.06978219,0.07995065,0.12699538,0.15293534
8.344118,1538,0xF0,0x00,0,1.57700002,1.57200003,0.06987724,0.07991929,0.12723787,0.15285532
8.344118,1540,0xF0,0x00,0,1.57900012,1.56700003,0.06995001,0.07993044,0.12742351,0.15288377
8.344118,1542,0xF0,0x00,0,1.57700002,1.57400012,0.07002804,0.07989758,0.12762256,0.15279995
8.344118,1544,0xF0,0x00,0,1.58000004,1.56500006,0.07007810,0.07992837,0.12775026,0.15287849
8.344118,1546,0xF0,0x00,0,1.57900012,1.57000005,0.07011980,0.07994896,0.12785663,0.15293103
8.344118,1548,0xF0,0x00,0,1.58100009,1.57300007,0.07013529,0.07993221,0.12789614,0.15288828
8.344118,1550,0xF0,0x00,0,1.57600009,1.56900012,0.07018466,0.07993227,0.12802207,0.15288845
8.354372,1552,0xF0,0x00,0,1.58100009,1.57100010,0.07020444,0.07992282,0.12807253,0.15286432
8.354372,1554,0xF0,0x00,0,1.57200003,1.56400013,0.07029663,0.07997863,0.12830773,0.15300670
8.354372,1556,0xF0,0x00,0,1.58300006,1.57600009,0.07032252,0.07995373,0.12837377,0.15294319
8.354372,1558,0xF0,0x00,0,1.57500005,1.57300007,0.07038689,0.07990757,0.12853798,0.15282543
8.354372,1560,0xF0,0x00,0,1.57800007,1.57100010,0.07044485,0.07986853,0.12868585,0.15272585
8.354372,1562,0xF0,0x00,0,1.58300006,1.56900012,0.07044715,0.07985488,0.12869172,0.15269101
8.354372,1564,0xF0,0x00,0,1.57900012,1.57000005,0.07045427,0.07984754,0.12870987,0.15267231
8.354372,1566,0xF0,0x00,0,1.57900012,1.56900012,0.07046442,0.07985456,0.12873577,0.15269019
8.354372,1568,0xF0,0x00,0,1.57500005,1.57100010,0.07051717,0.07985037,0.12887034,0.15267950
8.354372,1570,0xF0,0x00,0,1.58300006,1.56700003,0.07051538,0.07987976,0.12886576,0.15275449
8.364060,1572,0xF0,0x00,0,1.57900012,1.57200003,0.07051916,0.07987957,0.12887540,0.15275399
8.364060,1574,0xF0,0x00,0,1.58300006,1.57400012,0.07048574,0.07983992,0.12879016,0.15265284
8.364060,1576,0xF0,0x00,0,1.58000004,1.57000005,0.07045923,0.07981596,0.12872252,0.15259174
8.364060,1578,0xF0,0x00,0,1.58000004,1.57300007,0.07043745,0.07977182,0.12866695,0.15247913
8.364060,1580,0xF0,0x00,0,1.57800007,1.57300007,0.07043931,0.07971509,0.12867171,0.15233441
8.364060,1582,0xF0,0x00,0,1.57900012,1.56500006,0.07044622,0.07973234,0.12868935,0.15237841
8.364060,1584,0xF0,0x00,0,1.57800007,1.57200003,0.07046651,0.07972581,0.12874110,0.15236175
8.364060,1586,0xF0,0x00,0,1.57600009,1.57200003,0.07051560,0.07970402,0.12886633,0.15230617
8.364060,1588,0xF0,0x00,0,1.57600009,1.57600009,0.07058278,0.07963184,0.12903769,0.15212202
8.364060,1590,0xF0,0x00,0,1.57700002,1.57000005,0.07065075,0.07958902,0.12921108,0.15201280
8.373987,1592,0xF0,0x00,0,1.57600009,1.57200003,0.07072873,0.07954520,0.12941001,0.15190102
8.373987,1594,0xF0,0x00,0,1.57900012,1.56700003,0.07078180,0.07955213,0.12954542,0.15191869
8.373987,1596,0xF0,0x00,0,1.58200002,1.57000005,0.07078771,0.07956116,0.12956047,0.15194173
8.373987,1598,0xF0,0x00,0,1.57800007,1.57300007,0.07080387,0.07954089,0.12960169,0.15189004
8.373987,1600,0xF0,0x00,0,1.57300007,1.57000005,0.07087743,0.07953249,0.12978935,0.15186860
8.373987,1602,0xF0,0x00,0,1.57600009,1.56800008,0.07095670,0.07955221,0.12999159,0.15191890
8.373987,1604,0xF0,0x00,0,1.58000004,1.57300007,0.07099810,0.07953893,0.13009720,0.15188502
8.373987,1606,0xF0,0x00,0,1.57700002,1.57100010,0.07104521,0.07952487,0.13021737,0.15184915
8.373987,1608,0xF0,0x00,0,1.57900012,1.57100010,0.07107515,0.07951044,0.13029374,0.15181234
8.373987,1610,0xF0,0x00,0,1.57800007,1.56800008,0.07110389,0.07952650,0.13036706,0.15185331
8.383975,1612,0xF0,0x00,0,1.57900012,1.57400012,0.07112136,0.07950093,0.13041165,0.15178809
8.383975,1614,0xF0,0x00,0,1.57700002,1.57600009,0.07115179,0.07942838,0.13048925,0.15160301
8.383975,1616,0xF0,0x00,0,1.58100009,1.56700003,0.07114949,0.07941797,0.13048339,0.15157644
8.383975,1618,0xF0,0x00,0,1.57800007,1.57100010,0.07115667,0.07940698,0.13050172,0.15154842
8.383975,1620,0xF0,0x00,0,1.57900012,1.57000005,0.07115971,0.07940594,0.13050947,0.15154576
8.383975,1622,0xF0,0x00,0,1.57900012,1.57300007,0.07116004,0.07938075,0.13051030,0.15148151
8.383975,1624,0xF0,0x00,0,1.57400012,1.57300007,0.07120956,0.07934024,0.13063665,0.15137817
8.383975,1626,0xF0,0x00,0,1.57900012,1.57200003,0.07123938,0.07930045,0.13071270,0.15127665
8.383975,1628,0xF0,0x00,0,1.57900012,1.56700003,0.07125618,0.07931247,0.13075557,0.15130731
8.383975,1630,0xF0,0x00,0,1.57800007,1.57000005,0.07127460,0.07932723,0.13080256,0.15134497
8.394008,1632,0xF0,0x00,0,1.58000004,1.57100010,0.07127350,0.07933341,0.13079974,0.15136074
8.394008,1634,0xF0,0x00,0,1.57300007,1.57400012,0.07133113,0.07930344,0.13094676,0.15128428
8.394008,1636,0xF0,0x00,0,1.58100009,1.56900012,0.07134456,0.07930138,0.13098103,0.15127903
8.394008,1638,0xF0,0x00,0,1.57400012,1.56900012,0.07140066,0.07931736,0.13112414,0.15131979
8.394008,1640,0xF0,0x00,0,1.58300006,1.57000005,0.07139202,0.07933462,0.13110209,0.15136383
8.394008,1642,0xF0,0x00,0,1.57900012,1.57200003,0.07138245,0.07933217,0.13107768,0.15135756
8.394008,1644,0xF0,0x00,0,1.57800007,1.57500005,0.07138256,0.07928644,0.13107796,0.15124092
8.394008,1646,0xF0,0x00,0,1.58800006,1.57300007,0.07128704,0.07923364,0.13083427,0.15110622
8.394008,1648,0xF0,0x00,0,1.57900012,1.57000005,0.07122248,0.07920738,0.13066959,0.15103923
8.394008,1650,0xF0,0x00,0,1.57800007,1.57100010,0.07118874,0.07918832,0.13058352,0.15099061
8.404930,1652,0xF0,0x00,0,1.57600009,1.57200003,0.07119562,0.07916391,0.13060106,0.15092833
8.404930,1654,0xF0,0x00,0,1.57600009,1.57100010,0.07122862,0.07914649,0.13068525,0.15088390
8.404930,1656,0xF0,0x00,0,1.57800007,1.57100010,0.07125778,0.07913376,0.13075964,0.15085143
8.404930,1658,0xF0,0x00,0,1.58200002,1.57100010,0.07124340,0.07912418,0.13072295,0.15082698
8.404930,1660,0xF0,0x00,0,1.57800007,1.58000004,0.07124183,0.07902503,0.13071895,0.15057406
8.404930,1662,0xF0,0x00,0,1.58200002,1.57200003,0.07120778,0.07895061,0.13063210,0.15038422
8.404930,1664,0xF0,0x00,0,1.57800007,1.57100010,0.07119389,0.07890310,0.13059665,0.15026301
8.404930,1666,0xF0,0x00,0,1.58100009,1.57500005,0.07116257,0.07883268,0.13051675,0.15008336
8.404930,1668,0xF0,0x00,0,1.58000004,1.56900012,0.07113051,0.07880932,0.13043499,0.15002377
8.404930,1670,0xF0,0x00,0,1.58200002,1.56900012,0.07107794,0.07881657,0.13030085,0.15004227
8.413935,1672,0xF0,0x00,0,1.58000004,1.57300007,0.07103302,0.07880273,0.13018629,0.15000698
8.413935,1674,0xF0,0x00,0,1.58200002,1.57200003,0.07097314,0.07878563,0.13003352,0.14996333
8.413935,1676,0xF0,0x00,0,1.57900012,1.56800008,0.07093478,0.07880734,0.12993565,0.15001872
8.413935,1678,0xF0,0x00,0,1.58400011,1.57000005,0.07085975,0.07883350,0.12974425,0.15008545
8.413935,1680,0xF0,0x00,0,1.58200002,1.57300007,0.07078219,0.07883170,0.12954640,0.15008086
8.413935,1682,0xF0,0x00,0,1.58000004,1.57600009,0.07072418,0.07878130,0.12939842,0.14995229
8.413935,1684,0xF0,0x00,0,1.57900012,1.57000005,0.07068957,0.07876120,0.12931012,0.14990102
8.413935,1686,0xF0,0x00,0,1.58000004,1.56500006,0.07066020,0.07881179,0.12923521,0.15003009
8.413935,1688,0xF0,0x00,0,1.58100009,1.57300007,0.07062434,0.07882598,0.12914373,0.15006629
8.413935,1690,0xF0,0x00,0,1.58000004,1.56300008,0.07059484,0.07891842,0.12906846,0.15030208
8.424028,1692,0xF0,0x00,0,1.57700002,1.57300007,0.07060031,0.07895851,0.12908241,0.15040436
8.424028,1694,0xF0,0x00,0,1.57800007,1.56800008,0.07061810,0.07901537,0.12912782,0.15054940
8.424028,1696,0xF0,0x00,0,1.58000004,1.56500006,0.07062328,0.07911303,0.12914102,0.15079854
8.424028,1698,0xF0,0x00,0,1.58000004,1.56900012,0.07062027,0.07919527,0.12913333,0.15100834
8.424028,1700,0xF0,0x00,0,1.57900012,1.56500006,0.07062220,0.07930747,0.12913826,0.15129457
8.424028,1702,0xF0,0x00,0,1.57800007,1.57300007,0.07063748,0.07935636,0.12917724,0.15141928
8.424028,1704,0xF0,0x00,0,1.57600009,1.57100010,0.07068159,0.07938427,0.12928978,0.15149048
8.424028,1706,0xF0,0x00,0,1.58200002,1.56500006,0.07068273,0.07945949,0.12929270,0.15168236
8.424028,1708,0xF0,0x00,0,1.58000004,1.56900012,0.07067651,0.07952372,0.12927683,0.15184623
8.424028,1710,0xF0,0x00,0,1.57500005,1.57200003,0.07071655,0.07954964,0.12937896,0.15191235
8.433873,1712,0xF0,0x00,0,1.57700002,1.56500006,0.07076565,0.07962190,0.12950422,0.15209667
8.433873,1714,0xF0,0x00,0,1.57500005,1.56700003,0.07084047,0.07970294,0.12969507,0.15230341
8.433873,1716,0xF0,0x00,0,1.57800007,1.57000005,0.07090056,0.07975825,0.12984836,0.15244451
8.433873,1718,0xF0,0x00,0,1.58100009,1.57400012,0.07091997,0.07975564,0.12989788,0.15243785
8.433873,1720,0xF0,0x00,0,1.58000004,1.57100010,0.07092311,0.07974626,0.12990591,0.15241393
8.433873,1722,0xF0,0x00,0,1.57600009,1.57100010,0.07095649,0.07973260,0.12999104,0.15237910
8.433873,1724,0xF0,0x00,0,1.57900012,1.57000005,0.07097847,0.07972652,0.13004711,0.15236357
8.433873,1726,0xF0,0x00,0,1.57400012,1.56900012,0.07104381,0.07973556,0.13021381,0.15238664
8.433873,1728,0xF0,0x00,0,1.57600009,1.57400012,0.07111609,0.07970334,0.13039818,0.15230444
8.433873,1730,0xF0,0x00,0,1.57800007,1.57100010,0.07117173,0.07967538,0.13054013,0.15223311
8.443871,1732,0xF0,0x00,0,1.57300007,1.57200003,0.07126702,0.07964026,0.13078320,0.15214352
8.443871,1734,0xF0,0x00,0,1.57500005,1.56800008,0.07136653,0.07964165,0.13103706,0.15214705
8.443871,1736,0xF0,0x00,0,1.58100009,1.56700003,0.07140662,0.07967676,0.13113932,0.15223664
8.443871,1738,0xF0,0x00,0,1.57400012,1.56700003,0.07147929,0.07973327,0.13132471,0.15238079
8.443871,1740,0xF0,0x00,0,1.58300006,1.56800008,0.07148053,0.07979283,0.13132790,0.15253274
8.443871,1742,0xF0,0x00,0,1.57900012,1.57100010,0.07147644,0.07982318,0.13131747,0.15261015
8.443871,1744,0xF0,0x00,0,1.57600009,1.56600010,0.07149951,0.07988532,0.13137630,0.15276867
8.443871,1746,0xF0,0x00,0,1.57500005,1.57200003,0.07155006,0.07990620,0.13150527,0.15282194
8.443871,1748,0xF0,0x00,0,1.57400012,1.57100010,0.07162802,0.07991044,0.13170412,0.15283276
8.443871,1750,0xF0,0x00,0,1.57500005,1.57300007,0.07171267,0.07988352,0.13192008,0.15276408
8.453798,1752,0xF0,0x00,0,1.57600009,1.56600010,0.07179060,0.07990810,0.13211888,0.15282677
8.453798,1754,0xF0,0x00,0,1.57700002,1.56900012,0.07185320,0.07993507,0.13227856,0.15289558
8.453798,1756,0xF0,0x00,0,1.57500005,1.56700003,0.07192565,0.07998371,0.13246340,0.15301967
8.453798,1758,0xF0,0x00,0,1.57600009,1.56800008,0.07199353,0.08003563,0.13263656,0.15315212
8.453798,1760,0xF0,0x00,0,1.57700002,1.56900012,0.07204758,0.08007896,0.13277444,0.15326265
8.453798,1762,0xF0,0x00,0,1.57200003,1.57100010,0.07214311,0.08009592,0.13301814,0.15330592
8.453798,1764,0xF0,0x00,0,1.57400012,1.56900012,0.07224404,0.08011607,0.13327561,0.15335733
8.453798,1766,0xF0,0x00,0,1.57200003,1.56900012,0.07236781,0.08013808,0.13359135,0.15341347
8.453798,1768,0xF0,0x00,0,1.57500005,1.56800008,0.07247449,0.08017125,0.13386348,0.15349808
8.453798,1770,0xF0,0x00,0,1.57500005,1.57200003,0.07256905,0.08017053,0.13410471,0.15349624
8.463798,1772,0xF0,0x00,0,1.57800007,1.56900012,0.07262427,0.08017851,0.13424557,0.15351662
8.463798,1774,0xF0,0x00,0,1.57400012,1.57100010,0.07269429,0.08017166,0.13442419,0.15349913
8.463798,1776,0xF0,0x00,0,1.57400012,1.57100010,0.07277314,0.08015530,0.13462536,0.15345739
8.463798,1778,0xF0,0x00,0,1.57900012,1.57300007,0.07280596,0.08011259,0.13470906,0.15334845
8.463798,1780,0xF0,0x00,0,1.57200003,1.57100010,0.07288004,0.08007370,0.13489807,0.15324923
8.463798,1782,0xF0,0x00,0,1.57500005,1.57100010,0.07294945,0.08003766,0.13507512,0.15315729
8.463798,1784,0xF0,0x00,0,1.57200003,1.57300007,0.07304569,0.07998346,0.13532063,0.15301903
8.463798,1786,0xF0,0x00,0,1.58000004,1.57400012,0.07307675,0.07990789,0.13539986,0.15282626
8.463798,1788,0xF0,0x00,0,1.57600009,1.56700003,0.07310619,0.07989065,0.13547498,0.15278226
8.463798,1790,0xF0,0x00,0,1.58000004,1.57100010,0.07309354,0.07987044,0.13544270,0.15273070
8.473803,1792,0xF0,0x00,0,1.57300007,1.57700002,0.07312518,0.07978740,0.13552342,0.15251888
8.473803,1794,0xF0,0x00,0,1.57600009,1.57200003,0.07315451,0.07971561,0.13559824,0.15233573
8.473803,1796,0xF0,0x00,0,1.58600008,1.56700003,0.07308016,0.07970275,0.13540857,0.15230294
8.473803,1798,0xF0,0x00,0,1.58000004,1.57200003,0.07300080,0.07967710,0.13520613,0.15223750
8.473803,1800,0xF0,0x00,0,1.57900012,1.56900012,0.07292921,0.07967404,0.13502349,0.15222968
8.473803,1802,0xF0,0x00,0,1.57600009,1.57300007,0.07289393,0.07964481,0.13493347,0.15215512
8.473803,1804,0xF0,0x00,0,1.57800007,1.57000005,0.07286205,0.07962957,0.13485217,0.15211625
8.473803,1806,0xF0,0x00,0,1.57600009,1.57300007,0.07285308,0.07959294,0.13482928,0.15202281
8.473803,1808,0xF0,0x00,0,1.57700002,1.57100010,0.07284879,0.07956327,0.13481835,0.15194711
8.473803,1810,0xF0,0x00,0,1.57700002,1.56700003,0.07284756,0.07957914,0.13481520,0.15198760
8.483699,1812,0xF0,0x00,0,1.58000004,1.57300007,0.07281775,0.07956310,0.13473916,0.15194668
8.483699,1814,0xF0,0x00,0,1.58100009,1.57000005,0.07275962,0.07955720,0.13459086,0.15193161
8.483699,1816,0xF0,0x00,0,1.58000004,1.57400012,0.07269400,0.07951714,0.13442346,0.15182944
8.483699,1818,0xF0,0x00,0,1.57900012,1.56800008,0.07263439,0.07951660,0.13427140,0.15182805
8.483699,1820,0xF0,0x00,0,1.58200002,1.57000005,0.07254872,0.07952117,0.13405284,0.15183972
8.483699,1822,0xF0,0x00,0,1.58200002,1.56500006,0.07244709,0.07957994,0.13379359,0.15198964
8.483699,1824,0xF0,0x00,0,1.58300006,1.57300007,0.07232602,0.07959157,0.13348474,0.15201932
8.483699,1826,0xF0,0x00,0,1.58000004,1.57100010,0.07222420,0.07959305,0.13322499,0.15202308
8.483699,1828,0xF0,0x00,0,1.57200003,1.57000005,0.07221735,0.07959814,0.13320753,0.15203609
8.493149,1830,0xF0,0x00,0,1.58000004,1.56700003,0.07219034,0.07963610,0.13313863,0.15213290
8.493149,1832,0xF0,0x00,0,1.58100009,1.57000005,0.07214041,0.07966429,0.13301125,0.15220481
8.493149,1834,0xF0,0x00,0,1.58200002,1.57300007,0.07206600,0.07965533,0.13282144,0.15218197
8.493149,1836,0xF0,0x00,0,1.57900012,1.57200003,0.07200713,0.07963269,0.13267127,0.15212421
8.493149,1838,0xF0,0x00,0,1.58100009,1.57700002,0.07193851,0.07955050,0.13249619,0.15191454
8.493149,1840,0xF0,0x00,0,1.58400011,1.57200003,0.07183372,0.07948167,0.13222888,0.15173896
8.493149,1842,0xF0,0x00,0,1.58200002,1.57200003,0.07172705,0.07942216,0.13195677,0.15158714
8.493149,1844,0xF0,0x00,0,1.58500004,1.57100010,0.07158969,0.07937946,0.13160634,0.15147822
8.493149,1846,0xF0,0x00,0,1.57900012,1.57800007,0.07149504,0.07927673,0.13136490,0.15121613
8.493149,1848,0xF0,0x00,0,1.58000004,1.57300007,0.07141874,0.07918724,0.13117026,0.15098785
8.503102,1850,0xF0,0x00,0,1.58000004,1.57400012,0.07135505,0.07909703,0.13100779,0.15075772
8.503102,1852,0xF0,0x00,0,1.58000004,1.56900012,0.07130016,0.07905821,0.13086775,0.15065870
8.503102,1854,0xF0,0x00,0,1.58200002,1.58800006,0.07123111,0.07885935,0.13069162,0.15015140
8.503102,1856,0xF0,0x00,0,1.57900012,1.57600009,0.07118420,0.07868154,0.13057195,0.14969780
8.503102,1858,0xF0,0x00,0,1.57900012,1.56900012,0.07115206,0.07859043,0.13048995,0.14946538
8.503102,1860,0xF0,0x00,0,1.58000004,1.57500005,0.07111958,0.07849506,0.13040709,0.14922211
8.503102,1862,0xF0,0x00,0,1.57600009,1.56800008,0.07112797,0.07846924,0.13042851,0.14915621
8.503102,1864,0xF0,0x00,0,1.57900012,1.56600010,0.07113209,0.07850893,0.13043898,0.14925747
8.503102,1866,0xF0,0x00,0,1.58200002,1.56600010,0.07110283,0.07859048,0.13036436,0.14946552
8.503102,1868,0xF0,0x00,0,1.58100009,1.57200003,0.07106252,0.07863709,0.13026153,0.14958440
8.513100,1870,0xF0,0x00,0,1.58100009,1.57300007,0.07101550,0.07865047,0.13014159,0.14961855
8.513100,1872,0xF0,0x00,0,1.57800007,1.57400012,0.07099519,0.07863211,0.13008976,0.14957170
8.513100,1874,0xF0,0x00,0,1.58300006,1.56700003,0.07094138,0.07866476,0.12995251,0.14965498
8.513100,1876,0xF0,0x00,0,1.58000004,1.57300007,0.07089707,0.07866886,0.12983945,0.14966546
8.513100,1878,0xF0,0x00,0,1.58500004,1.56500006,0.07080839,0.07873601,0.12961324,0.14983678
8.513100,1880,0xF0,0x00,0,1.58100009,1.57100010,0.07073274,0.07878203,0.12942027,0.14995416
8.513100,1882,0xF0,0x00,0,1.58100009,1.57100010,0.07066628,0.07881394,0.12925072,0.15003556
8.513100,1884,0xF0,0x00,0,1.58000004,1.57500005,0.07061661,0.07879567,0.12912400,0.14998896
8.513100,1886,0xF0,0x00,0,1.58300006,1.56900012,0.07054771,0.07880634,0.12894826,0.15001617
8.513100,1888,0xF0,0x00,0,1.57900012,1.57400012,0.07050787,0.07878463,0.12884660,0.14996079
8.523049,1890,0xF0,0x00,0,1.58100009,1.57400012,0.07046679,0.07874225,0.12874183,0.14985268
8.523049,1892,0xF0,0x00,0,1.58400011,1.56900012,0.07039478,0.07873791,0.12855810,0.14984159
8.523049,1894,0xF0,0x00,0,1.57900012,1.57600009,0.07035448,0.07868683,0.12845530,0.14971128
8.523049,1896,0xF0,0x00,0,1.58300006,1.56700003,0.07029430,0.07869782,0.12830178,0.14973933
8.523049,1898,0xF0,0x00,0,1.58200002,1.57100010,0.07023209,0.07870799,0.12814310,0.14976527
8.523049,1900,0xF0,0x00,0,1.58500004,1.57000005,0.07013865,0.07872771,0.12790471,0.14981557
8.523049,1902,0xF0,0x00,0,1.58200002,1.57200003,0.07005657,0.07873302,0.12769532,0.14982912
8.523049,1904,0xF0,0x00,0,1.58500004,1.56800008,0.06995208,0.07876974,0.12742877,0.14992279
8.523049,1906,0xF0,0x00,0,1.58300006,1.57300007,0.06985459,0.07877539,0.12718007,0.14993721
8.523049,1908,0xF0,0x00,0,1.58600008,1.57400012,0.06973203,0.07875076,0.12686743,0.14987437
8.533077,1910,0xF0,0x00,0,1.58400011,1.57100010,0.06961493,0.07873741,0.12656870,0.14984033
8.533077,1912,0xF0,0x00,0,1.57900012,1.57100010,0.06955349,0.07873146,0.12641194,0.14982516
8.533077,1914,0xF0,0x00,0,1.58400011,1.56800008,0.06947763,0.07876093,0.12621845,0.14990033
8.533077,1916,0xF0,0x00,0,1.58300006,1.57200003,0.06940345,0.07877219,0.12602919,0.14992905
8.533077,1918,0xF0,0x00,0,1.58200002,1.57300007,0.06934128,0.07876139,0.12587062,0.14990151
8.533077,1920,0xF0,0x00,0,1.58400011,1.57100010,0.06926712,0.07875685,0.12568145,0.14988993
8.533077,1922,0xF0,0x00,0,1.58500004,1.56900012,0.06917580,0.07877678,0.12544847,0.14994077
8.533077,1924,0xF0,0x00,0,1.58000004,1.56700003,0.06912527,0.07883267,0.12531957,0.15008333
8.533077,1926,0xF0,0x00,0,1.58300006,1.56800008,0.06907102,0.07890100,0.12518117,0.15025766
8.533077,1928,0xF0,0x00,0,1.58000004,1.57000005,0.06904548,0.07895628,0.12511601,0.15039867
8.542935,1930,0xF0,0x00,0,1.57900012,1.57400012,0.06904891,0.07896183,0.12512477,0.15041284
8.542935,1932,0xF0,0x00,0,1.58200002,1.56500006,0.06904044,0.07902694,0.12510316,0.15057892
8.542935,1934,0xF0,0x00,0,1.58100009,1.56700003,0.06903456,0.07910942,0.12508817,0.15078934
8.542935,1936,0xF0,0x00,0,1.58000004,1.56900012,0.06904060,0.07918190,0.12510358,0.15097423
8.542935,1938,0xF0,0x00,0,1.57500005,1.57200003,0.06910522,0.07921663,0.12526843,0.15106283
8.542935,1940,0xF0,0x00,0,1.58100009,1.56800008,0.06914584,0.07926739,0.12537205,0.15119232
8.542935,1942,0xF0,0x00,0,1.57900012,1.57100010,0.06919094,0.07929742,0.12548709,0.15126891
8.542935,1944,0xF0,0x00,0,1.57800007,1.57100010,0.06924866,0.07931376,0.12563434,0.15131062
8.542935,1946,0xF0,0x00,0,1.57700002,1.56600010,0.06932412,0.07937206,0.12582684,0.15145932
8.542935,1948,0xF0,0x00,0,1.58000004,1.57000005,0.06937969,0.07941607,0.12596861,0.15157160
8.552932,1950,0xF0,0x00,0,1.58100009,1.56700003,0.06941168,0.07948098,0.12605020,0.15173718
8.552932,1952,0xF0,0x00,0,1.58300006,1.57000005,0.06940775,0.07952815,0.12604016,0.15185751
8.552932,1954,0xF0,0x00,0,1.57900012,1.56600010,0.06942143,0.07960414,0.12607509,0.15205139
8.552932,1956,0xF0,0x00,0,1.58200002,1.57000005,0.06941578,0.07965720,0.12606066,0.15218674
8.552932,1958,0xF0,0x00,0,1.58000004,1.57300007,0.06941808,0.07966437,0.12606654,0.15220502
8.552932,1960,0xF0,0x00,0,1.58300006,1.56800008,0.06939493,0.07969279,0.12600748,0.15227751
8.552932,1962,0xF0,0x00,0,1.58100009,1.57000005,0.06937597,0.07971425,0.12595910,0.15233228
8.552932,1964,0xF0,0x00,0,1.57800007,1.57000005,0.06939047,0.07973102,0.12599608,0.15237504
8.552932,1966,0xF0,0x00,0,1.58000004,1.57300007,0.06940603,0.07971401,0.12603579,0.15233165
8.552932,1968,0xF0,0x00,0,1.58300006,1.56900012,0.06939156,0.07971613,0.12599888,0.15233707
8.562948,1970,0xF0,0x00,0,1.58000004,1.57300007,0.06938843,0.07968982,0.12599088,0.15226996
8.562948,1972,0xF0,0x00,0,1.57700002,1.56300008,0.06942320,0.07974733,0.12607959,0.15241666
8.562948,1974,0xF0,0x00,0,1.58100009,1.56900012,0.06944132,0.07979720,0.12612581,0.15254387
