pc_time_s,seq_id,module_id,status,tx_drops,EMG R env,EMG L env,EMG R act,EMG L act,FSR RH,FSR RT,FSR LH,FSR LT,Phase R,Phase L,Gait R,Gait L,Thigh R,Thigh L,Tau R,Tau L
0.0000,8666,240,0,0,0.001327,0.008933,0.000000,0.000000,1.500000,1.500000,1.249503,1.500000,0.033683,0.591753,1.000000,2.000000,5.932617,-17.402344,0.000000,0.000000
0.0100,8667,240,0,0,0.001386,0.008833,0.000000,0.000000,1.500000,1.500000,1.250071,1.500000,0.040417,0.594253,1.000000,2.000000,5.932617,-17.402344,0.000000,0.000000
0.0200,8668,240,0,0,0.001928,0.009082,0.000000,0.000000,1.500000,1.500000,1.249928,1.500000,0.047151,0.596752,1.000000,2.000000,5.932617,-17.402344,0.000000,0.000000
0.0300,8669,240,0,0,0.001835,0.009284,0.000000,0.000000,1.500000,1.500000,1.250330,1.500000,0.053885,0.599252,1.000000,2.000000,5.932617,-17.380371,0.000000,0.000000
0.0400,8670,240,0,0,0.001911,0.009816,0.000000,0.000000,1.500000,1.500000,1.251337,1.500000,0.060619,0.601752,1.000000,2.000000,5.932617,-17.380371,0.000000,0.000000
0.0500,8671,240,0,0,0.002163,0.010267,0.000000,0.000000,1.500000,1.500000,1.251447,1.500000,0.067353,0.604252,1.000000,2.000000,5.954590,-17.358398,0.000000,0.000000
0.0600,8672,240,0,0,0.001907,0.010249,0.000000,0.000000,1.500000,1.500000,1.250113,1.500000,0.074087,0.606752,1.000000,2.000000,5.976562,-17.336426,0.000000,0.000000
0.0700,8673,240,0,0,0.001885,0.009658,0.000000,0.000000,1.500000,1.500000,1.250498,1.500000,0.080821,0.609251,1.000000,2.000000,5.998535,-17.314453,0.000000,0.000000
0.0800,8674,240,0,0,0.001979,0.009950,0.000000,0.000000,1.500000,1.500000,1.250662,1.500000,0.087555,0.611751,1.000000,2.000000,6.020508,-17.292480,0.000000,0.000000
0.0900,8675,240,0,0,0.001810,0.010084,0.000000,0.000000,1.500000,1.500000,1.250349,1.500000,0.094289,0.614251,1.000000,2.000000,6.042480,-17.270508,0.000000,0.000000
0.1000,8676,240,0,0,0.001851,0.010068,0.000000,0.000000,1.500000,1.500000,1.251384,1.500000,0.101023,0.616751,1.000000,2.000000,6.086426,-17.226562,0.000000,0.000000
0.1100,8677,240,0,0,0.002053,0.010136,0.000000,0.000000,1.500000,1.500000,1.253947,1.500000,0.107757,0.619251,1.000000,2.000000,6.130371,-17.182617,0.000000,0.000000
0.1200,8678,240,0,0,0.002257,0.010248,0.000000,0.000000,1.500000,1.500000,1.255165,1.500000,0.114491,0.621751,1.000000,2.000000,6.174316,-17.138672,0.000000,0.000000
0.1300,8679,240,0,0,0.002024,0.010436,0.000000,0.000000,1.500000,1.500000,1.257808,1.500000,0.121225,0.624250,1.000000,2.000000,6.218262,-17.072754,0.000000,0.000000
0.1400,8680,240,0,0,0.001771,0.010417,0.000000,0.000000,1.500000,1.500000,1.260041,1.500000,0.127959,0.626750,1.000000,2.000000,6.284180,-17.006836,0.000000,0.000000
0.1500,8681,240,0,0,0.001960,0.010604,0.000000,0.000000,1.500000,1.500000,1.263604,1.500000,0.134693,0.629250,1.000000,2.000000,6.328125,-16.962891,0.000000,0.000000
0.1600,8682,240,0,0,0.001864,0.010250,0.000000,0.000000,1.500000,1.500000,1.267688,1.500000,0.141427,0.631750,1.000000,2.000000,6.416016,-16.875000,0.000000,0.000000
0.1700,8683,240,0,0,0.001570,0.010092,0.000000,0.000000,1.500000,1.500000,1.270111,1.500000,0.148161,0.634250,1.000000,2.000000,6.503906,-16.787109,0.000000,0.000000
0.1800,8684,240,0,0,0.001522,0.009893,0.000000,0.000000,1.500000,1.500000,1.272510,1.500000,0.154895,0.636749,1.000000,2.000000,6.569824,-16.721191,0.000000,0.000000
0.1900,8685,240,0,0,0.001657,0.009744,0.000000,0.000000,1.500000,1.500000,1.275827,1.500000,0.161629,0.639249,1.000000,2.000000,6.657715,-16.633301,0.000000,0.000000
0.2000,8687,240,0,0,0.001832,0.010022,0.000000,0.000000,1.500000,1.500000,1.279971,1.500000,0.175097,0.644249,1.000000,2.000000,6.789551,-16.479492,0.000000,0.000000
0.2100,8688,240,0,0,0.001563,0.009897,0.000000,0.000000,1.500000,1.500000,1.282434,1.500000,0.181831,0.646749,1.000000,2.000000,6.855469,-16.413574,0.000000,0.000000
0.2200,8689,240,0,0,0.001470,0.009840,0.000000,0.000000,1.500000,1.500000,1.283773,1.500000,0.188565,0.649249,1.000000,2.000000,6.921387,-16.347656,0.000000,0.000000
0.2300,8690,240,0,0,0.001747,0.010084,0.000000,0.000000,1.500000,1.500000,1.286068,1.500000,0.195299,0.651748,1.000000,2.000000,6.987305,-16.281738,0.000000,0.000000
0.2400,8691,240,0,0,0.001652,0.009792,0.000000,0.000000,1.500000,1.500000,1.288005,1.500000,0.202033,0.654248,1.000000,2.000000,7.053223,-16.215820,0.000000,0.000000
0.2500,8692,240,0,0,0.001524,0.009367,0.000000,0.000000,1.500000,1.500000,1.288957,1.500000,0.208767,0.656748,1.000000,2.000000,7.119141,-16.171875,0.000000,0.000000
0.2600,8693,240,0,0,0.001356,0.009004,0.000000,0.000000,1.500000,1.500000,1.290122,1.500000,0.215501,0.659248,1.000000,2.000000,7.163086,-16.105957,0.000000,0.000000
0.2700,8694,240,0,0,0.001277,0.008868,0.000000,0.000000,1.500000,1.500000,1.291317,1.500000,0.222235,0.661748,1.000000,2.000000,7.207031,-16.083984,0.000000,0.000000
0.2800,8695,240,0,0,0.001094,0.008840,0.000000,0.000000,1.500000,1.500000,1.292678,1.500000,0.228969,0.664247,1.000000,2.000000,7.229004,-16.062012,0.000000,0.000000
0.2900,8696,240,0,0,0.001302,0.009310,0.000000,0.000000,1.500000,1.500000,1.293948,1.500000,0.235703,0.666747,1.000000,2.000000,7.272949,-16.040039,0.000000,0.000000
0.3000,8697,240,0,0,0.001395,0.009554,0.000000,0.000000,1.500000,1.500000,1.293326,1.500000,0.242437,0.669247,1.000000,2.000000,7.272949,-16.040039,0.000000,0.000000
0.3100,8698,240,0,0,0.001480,0.009629,0.000000,0.000000,1.500000,1.500000,1.295123,1.500000,0.249171,0.671747,1.000000,2.000000,7.272949,-16.040039,0.000000,0.000000
0.3200,8699,240,0,0,0.001329,0.009467,0.000000,0.000000,1.500000,1.500000,1.295835,1.500000,0.255905,0.674247,1.000000,2.000000,7.272949,-16.040039,0.000000,0.000000
0.3300,8700,240,0,0,0.001423,0.009139,0.000000,0.000000,1.500000,1.500000,1.296121,1.500000,0.262639,0.676747,1.000000,2.000000,7.250977,-16.062012,0.000000,0.000000
0.3400,8701,240,0,0,0.001443,0.009114,0.000000,0.000000,1.500000,1.500000,1.296387,1.500000,0.269373,0.679246,1.000000,2.000000,7.229004,-16.083984,0.000000,0.000000
0.3500,8702,240,0,0,0.001447,0.008971,0.000000,0.000000,1.500000,1.500000,1.297566,1.500000,0.276108,0.681746,1.000000,2.000000,7.185059,-16.127930,0.000000,0.000000
0.3600,8703,240,0,0,0.001581,0.009393,0.000000,0.000000,1.500000,1.500000,1.298260,1.500000,0.282842,0.684246,1.000000,2.000000,7.141113,-16.149902,0.000000,0.000000
0.3700,8704,240,0,0,0.001529,0.009095,0.000000,0.000000,1.500000,1.500000,1.299090,1.500000,0.289576,0.686746,1.000000,2.000000,7.119141,-16.171875,0.000000,0.000000
0.3800,8705,240,0,0,0.001701,0.008755,0.000000,0.000000,1.500000,1.500000,1.300357,1.500000,0.296310,0.689246,1.000000,2.000000,7.075195,-16.215820,0.000000,0.000000
0.3900,8706,240,0,0,0.001576,0.009173,0.000000,0.000000,1.500000,1.500000,1.301185,1.500000,0.303044,0.691745,1.000000,2.000000,7.031250,-16.237793,0.000000,0.000000
0.4000,8707,240,0,0,0.001632,0.009784,0.000000,0.000000,1.500000,1.500000,1.303250,1.500000,0.309778,0.694245,1.000000,2.000000,6.987305,-16.281738,0.000000,0.000000
0.4100,8708,240,0,0,0.001549,0.010054,0.000000,0.000000,1.500000,1.500000,1.307105,1.500000,0.316512,0.696745,1.000000,2.000000,6.943359,-16.325684,0.000000,0.000000
0.4200,8709,240,0,0,0.001456,0.010337,0.000000,0.000000,1.500000,1.500000,1.309354,1.500000,0.323246,0.699245,1.000000,2.000000,6.899414,-16.347656,0.000000,0.000000
0.4300,8710,240,0,0,0.001341,0.010223,0.000000,0.000000,1.500000,1.500000,1.313168,1.500000,0.329981,0.701745,1.000000,2.000000,6.833496,-16.369629,0.000000,0.000000
0.4400,8711,240,0,0,0.001358,0.009775,0.000000,0.000000,1.500000,1.500000,1.318306,1.500000,0.336715,0.704245,1.000000,2.000000,6.767578,-16.413574,0.000000,0.000000
0.4500,8712,240,0,0,0.001478,0.009428,0.000000,0.000000,1.500000,1.500000,1.321771,1.500000,0.343449,0.706744,1.000000,2.000000,6.723633,-16.435547,0.000000,0.000000
0.4600,8713,240,0,0,0.001327,0.009288,0.000000,0.000000,1.500000,1.500000,1.326818,1.500000,0.350183,0.709244,1.000000,2.000000,6.657715,-16.457520,0.000000,0.000000
0.4700,8714,240,0,0,0.001651,0.009195,0.000000,0.000000,1.500000,1.500000,1.329650,1.500000,0.356917,0.711744,1.000000,2.000000,6.613770,-16.479492,0.000000,0.000000
0.4800,8715,240,0,0,0.001752,0.009188,0.000000,0.000000,1.500000,1.500000,1.334286,1.500000,0.363651,0.714244,1.000000,2.000000,6.569824,-16.523438,0.000000,0.000000
0.4900,8716,240,0,0,0.001752,0.008847,0.000000,0.000000,1.500000,1.500000,1.336918,1.500000,0.370385,0.716744,1.000000,2.000000,6.525879,-16.545410,0.000000,0.000000
0.5000,8717,240,0,0,0.001911,0.009158,0.000000,0.000000,1.500000,1.500000,1.340623,1.500000,0.377120,0.719243,1.000000,2.000000,6.481934,-16.567383,0.000000,0.000000
0.5100,8718,240,0,0,0.001826,0.009638,0.000000,0.000000,1.500000,1.500000,1.343759,1.500000,0.383854,0.721743,1.000000,2.000000,6.459961,-16.589355,0.000000,0.000000
0.5200,8719,240,0,0,0.001689,0.009671,0.000000,0.000000,1.500000,1.500000,1.345373,1.500000,0.390588,0.724243,1.000000,2.000000,6.437988,-16.611328,0.000000,0.000000
0.5300,8720,240,0,0,0.001629,0.009577,0.000000,0.000000,1.500000,1.500000,1.348186,1.500000,0.397322,0.726743,1.000000,2.000000,6.416016,-16.633301,0.000000,0.000000
0.5400,8721,240,0,0,0.001707,0.009941,0.000000,0.000000,1.500000,1.500000,1.351423,1.500000,0.404056,0.729243,1.000000,2.000000,6.394043,-16.655273,0.000000,0.000000
0.5500,8722,240,0,0,0.001683,0.010097,0.000000,0.000000,1.500000,1.500000,1.353488,1.500000,0.410790,0.731743,1.000000,2.000000,6.372070,-16.699219,0.000000,0.000000
0.5600,8723,240,0,0,0.001526,0.009551,0.000000,0.000000,1.500000,1.500000,1.355282,1.500000,0.417524,0.734242,1.000000,2.000000,6.350098,-16.721191,0.000000,0.000000
0.5700,8724,240,0,0,0.001317,0.009873,0.000000,0.000000,1.500000,1.500000,1.358708,1.500000,0.424258,0.736742,1.000000,2.000000,6.328125,-16.743164,0.000000,0.000000
0.5800,8725,240,0,0,0.001620,0.010066,0.000000,0.000000,1.500000,1.500000,1.362389,1.500000,0.430993,0.739242,1.000000,2.000000,6.328125,-16.765137,0.000000,0.000000
0.5900,8726,240,0,0,0.001735,0.009625,0.000000,0.000000,1.500000,1.500000,1.364855,1.500000,0.437727,0.741742,1.000000,2.000000,6.306152,-16.787109,0.000000,0.000000
0.6000,8727,240,0,0,0.002044,0.009789,0.000000,0.000000,1.500000,1.500000,1.365387,1.500000,0.444461,0.744242,1.000000,2.000000,6.284180,-16.809082,0.000000,0.000000
0.6100,8728,240,0,0,0.001698,0.009628,0.000000,0.000000,1.500000,1.500000,1.365878,1.500000,0.451195,0.746741,1.000000,2.000000,6.262207,-16.831055,0.000000,0.000000
0.6200,8729,240,0,0,0.001639,0.009396,0.000000,0.000000,1.500000,1.500000,1.368915,1.500000,0.457929,0.749241,1.000000,2.000000,6.240234,-16.853027,0.000000,0.000000
0.6300,8730,240,0,0,0.001731,0.009874,0.000000,0.000000,1.500000,1.500000,1.370343,1.500000,0.464663,0.751741,1.000000,2.000000,6.218262,-16.853027,0.000000,0.000000
0.6400,8731,240,0,0,0.001692,0.010099,0.000000,0.000000,1.500000,1.500000,1.371254,1.500000,0.471397,0.754241,1.000000,2.000000,6.196289,-16.875000,0.000000,0.000000
0.6500,8732,240,0,0,0.001621,0.009988,0.000000,0.000000,1.500000,1.500000,1.371760,1.500000,0.478132,0.756741,1.000000,2.000000,6.174316,-16.875000,0.000000,0.000000
0.6600,8733,240,0,0,0.001592,0.010039,0.000000,0.000000,1.500000,1.500000,1.373134,1.500000,0.484866,0.759241,1.000000,2.000000,6.152344,-16.896973,0.000000,0.000000
0.6700,8734,240,0,0,0.001544,0.010285,0.000000,0.000000,1.500000,1.500000,1.373294,1.500000,0.491600,0.761740,1.000000,2.000000,6.130371,-16.896973,0.000000,0.000000
0.6800,8735,240,0,0,0.001440,0.010109,0.000000,0.000000,1.500000,1.500000,1.374570,1.500000,0.498334,0.764240,1.000000,2.000000,6.108398,-16.918945,0.000000,0.000000
0.6900,8737,240,0,0,0.001468,0.010206,0.000000,0.000000,1.500000,1.500000,1.376307,1.500000,0.511802,0.769240,1.000000,2.000000,6.064453,-16.940918,0.000000,0.000000
0.7000,8738,240,0,0,0.001384,0.009708,0.000000,0.000000,1.500000,1.500000,1.378309,1.500000,0.518536,0.771740,1.000000,2.000000,6.064453,-16.940918,0.000000,0.000000
0.7100,8739,240,0,0,0.001508,0.009691,0.000000,0.000000,1.500000,1.500000,1.377795,1.500000,0.525270,0.774239,1.000000,2.000000,6.042480,-16.962891,0.000000,0.000000
0.7200,8740,240,0,0,0.001959,0.009743,0.000000,0.000000,1.500000,1.500000,1.378390,1.500000,0.532005,0.776739,1.000000,2.000000,6.042480,-16.962891,0.000000,0.000000
0.7300,8741,240,0,0,0.001942,0.009850,0.000000,0.000000,1.500000,1.500000,1.378876,1.500000,0.538739,0.779239,1.000000,2.000000,6.020508,-16.962891,0.000000,0.000000
0.7400,8742,240,0,0,0.001732,0.009504,0.000000,0.000000,1.500000,1.500000,1.379147,1.500000,0.545473,0.781739,1.000000,2.000000,6.020508,-16.984863,0.000000,0.000000
0.7500,8743,240,0,0,0.001613,0.009864,0.000000,0.000000,1.500000,1.500000,1.379061,1.500000,0.552207,0.784239,1.000000,2.000000,5.998535,-16.984863,0.000000,0.000000
0.7600,8744,240,0,0,0.001866,0.010011,0.000000,0.000000,1.500000,1.500000,1.379461,1.500000,0.558941,0.786739,1.000000,2.000000,5.976562,-17.006836,0.000000,0.000000
0.7700,8745,240,0,0,0.001685,0.009851,0.000000,0.000000,1.500000,1.500000,1.378671,1.500000,0.565675,0.789238,1.000000,2.000000,5.954590,-17.006836,0.000000,0.000000
0.7800,8746,240,0,0,0.001503,0.009676,0.000000,0.000000,1.500000,1.500000,1.377467,1.500000,0.572409,0.791738,1.000000,2.000000,5.932617,-17.028809,0.000000,0.000000
0.7900,8747,240,0,0,0.001394,0.009912,0.000000,0.000000,1.500000,1.500000,1.376692,1.500000,0.579143,0.794238,1.000000,2.000000,5.910645,-17.050781,0.000000,0.000000
0.8000,8748,240,0,0,0.001407,0.009380,0.000000,0.000000,1.500000,1.500000,1.376348,1.500000,0.585878,0.796738,1.000000,2.000000,5.888672,-17.050781,0.000000,0.000000
0.8100,8749,240,0,0,0.001855,0.009270,0.000000,0.000000,1.500000,1.500000,1.376046,1.500000,0.592612,0.799238,1.000000,2.000000,5.866699,-17.072754,0.000000,0.000000
0.8200,8750,240,0,0,0.002115,0.009774,0.000000,0.000000,1.500000,1.500000,1.374375,1.500000,0.599346,0.801737,1.000000,2.000000,5.844727,-17.094727,0.000000,0.000000
0.8300,8751,240,0,0,0.001978,0.009804,0.000000,0.000000,1.500000,1.500000,1.373471,1.500000,0.606080,0.804237,1.000000,2.000000,5.844727,-17.116699,0.000000,0.000000
0.8400,8752,240,0,0,0.002068,0.010223,0.000000,0.000000,1.500000,1.500000,1.371793,1.500000,0.612814,0.806737,1.000000,2.000000,5.822754,-17.138672,0.000000,0.000000
0.8500,8753,240,0,0,0.001905,0.009908,0.000000,0.000000,1.500000,1.500000,1.370150,1.500000,0.619548,0.809237,1.000000,2.000000,5.800781,-17.160645,0.000000,0.000000
0.8600,8754,240,0,0,0.001633,0.009259,0.000000,0.000000,1.500000,1.500000,1.369454,1.500000,0.626282,0.811737,1.000000,2.000000,5.778809,-17.182617,0.000000,0.000000
0.8700,8755,240,0,0,0.001784,0.009577,0.000000,0.000000,1.500000,1.500000,1.368007,1.500000,0.633017,0.814237,1.000000,2.000000,5.756836,-17.204590,0.000000,0.000000
0.8800,8756,240,0,0,0.001676,0.009354,0.000000,0.000000,1.500000,1.500000,1.366989,1.500000,0.639751,0.816736,1.000000,2.000000,5.734863,-17.226562,0.000000,0.000000
0.8900,8757,240,0,0,0.001605,0.009595,0.000000,0.000000,1.500000,1.500000,1.364620,1.500000,0.646485,0.819236,1.000000,2.000000,5.712891,-17.248535,0.000000,0.000000
0.9000,8758,240,0,0,0.001463,0.009654,0.000000,0.000000,1.500000,1.500000,1.365213,1.500000,0.653219,0.821736,1.000000,2.000000,5.712891,-17.270508,0.000000,0.000000
0.9100,8759,240,0,0,0.001410,0.009963,0.000000,0.000000,1.500000,1.500000,1.365013,1.500000,0.659953,0.824236,1.000000,2.000000,5.690918,-17.270508,0.000000,0.000000
0.9200,8760,240,0,0,0.001391,0.010503,0.000000,0.000000,1.500000,1.500000,1.364091,1.500000,0.666687,0.826736,1.000000,2.000000,5.690918,-17.292480,0.000000,0.000000
0.9300,8761,240,0,0,0.001393,0.010625,0.000000,0.000000,1.500000,1.500000,1.364551,1.500000,0.673421,0.829235,1.000000,2.000000,5.690918,-17.292480,0.000000,0.000000
0.9400,8762,240,0,0,0.001512,0.010924,0.000000,0.000000,1.500000,1.500000,1.365414,1.500000,0.680155,0.831735,1.000000,2.000000,5.668945,-17.314453,0.000000,0.000000
0.9500,8763,240,0,0,0.001539,0.010873,0.000000,0.000000,1.500000,1.500000,1.363951,1.500000,0.686890,0.834235,1.000000,2.000000,5.668945,-17.314453,0.000000,0.000000
0.9600,8764,240,0,0,0.001908,0.010992,0.000000,0.000000,1.500000,1.500000,1.363613,1.500000,0.693624,0.836735,1.000000,2.000000,5.668945,-17.314453,0.000000,0.000000
0.9700,8765,240,0,0,0.001944,0.010939,0.000000,0.000000,1.500000,1.500000,1.363585,1.500000,0.700358,0.839235,1.000000,2.000000,5.668945,-17.314453,0.000000,0.000000
0.9800,8766,240,0,0,0.002071,0.011020,0.000000,0.000000,1.500000,1.500000,1.362562,1.500000,0.707092,0.841735,1.000000,2.000000,5.668945,-17.314453,0.000000,0.000000
0.9900,8767,240,0,0,0.001847,0.010758,0.000000,0.000000,1.500000,1.500000,1.361785,1.500000,0.713826,0.844234,1.000000,2.000000,5.668945,-17.314453,0.000000,0.000000
1.0000,8768,240,0,0,0.001639,0.010738,0.000000,0.000000,1.500000,1.500000,1.361053,1.500000,0.720560,0.846734,1.000000,2.000000,5.668945,-17.314453,0.000000,0.000000
1.0100,8769,240,0,0,0.001543,0.011102,0.000000,0.000000,1.500000,1.500000,1.359363,1.500000,0.727294,0.849234,1.000000,2.000000,5.690918,-17.314453,0.000000,0.000000
1.0200,8770,240,0,0,0.001399,0.010824,0.000000,0.000000,1.500000,1.500000,1.358570,1.500000,0.734029,0.851734,1.000000,2.000000,5.690918,-17.292480,0.000000,0.000000
1.0300,8771,240,0,0,0.001456,0.010282,0.000000,0.000000,1.500000,1.500000,1.357269,1.500000,0.740763,0.854234,1.000000,2.000000,5.690918,-17.292480,0.000000,0.000000
1.0400,8772,240,0,0,0.001496,0.009996,0.000000,0.000000,1.500000,1.500000,1.355266,1.500000,0.747497,0.856734,1.000000,2.000000,5.690918,-17.292480,0.000000,0.000000
1.0500,8773,240,0,0,0.001519,0.010046,0.000000,0.000000,1.500000,1.500000,1.355909,1.500000,0.754231,0.859233,1.000000,2.000000,5.712891,-17.292480,0.000000,0.000000
1.0600,8774,240,0,0,0.001693,0.010097,0.000000,0.000000,1.500000,1.500000,1.354297,1.500000,0.760965,0.861733,1.000000,2.000000,5.712891,-17.270508,0.000000,0.000000
1.0700,8775,240,0,0,0.002315,0.011145,0.000000,0.000000,1.500000,1.500000,1.353500,1.500000,0.767699,0.864233,1.000000,2.000000,5.734863,-17.270508,0.000000,0.000000
1.0800,8776,240,0,0,0.002052,0.010701,0.000000,0.000000,1.500000,1.500000,1.352968,1.500000,0.774433,0.866733,1.000000,2.000000,5.756836,-17.248535,0.000000,0.000000
1.0900,8777,240,0,0,0.001813,0.010843,0.000000,0.000000,1.500000,1.500000,1.351163,1.500000,0.781167,0.869233,1.000000,2.000000,5.778809,-17.248535,0.000000,0.000000
1.1000,8778,240,0,0,0.001710,0.010505,0.000000,0.000000,1.500000,1.500000,1.349755,1.500000,0.787902,0.871732,1.000000,2.000000,5.778809,-17.226562,0.000000,0.000000
1.1100,8779,240,0,0,0.001825,0.011104,0.000000,0.000000,1.500000,1.500000,1.349394,1.500000,0.794636,0.874232,1.000000,2.000000,5.800781,-17.226562,0.000000,0.000000
1.1200,8780,240,0,0,0.001702,0.011488,0.000000,0.000000,1.500000,1.500000,1.348348,1.500000,0.801370,0.876732,1.000000,2.000000,5.822754,-17.204590,0.000000,0.000000
1.1300,8781,240,0,0,0.001606,0.011190,0.000000,0.000000,1.500000,1.500000,1.347588,1.500000,0.808104,0.879232,1.000000,2.000000,5.844727,-17.182617,0.000000,0.000000
1.1400,8782,240,0,0,0.001490,0.010579,0.000000,0.000000,1.500000,1.500000,1.346595,1.500000,0.814838,0.881732,1.000000,2.000000,5.866699,-17.160645,0.000000,0.000000
1.1500,8783,240,0,0,0.001533,0.009885,0.000000,0.000000,1.500000,1.500000,1.346865,1.500000,0.821572,0.884232,1.000000,2.000000,5.888672,-17.138672,0.000000,0.000000
1.1600,8784,240,0,0,0.001700,0.009461,0.000000,0.000000,1.500000,1.500000,1.344699,1.500000,0.828306,0.886731,1.000000,2.000000,5.910645,-17.116699,0.000000,0.000000
1.1700,8785,240,0,0,0.001499,0.008798,0.000000,0.000000,1.500000,1.500000,1.343640,1.500000,0.835041,0.889231,1.000000,2.000000,5.932617,-17.094727,0.000000,0.000000
1.1800,8787,240,0,0,0.001341,0.008380,0.000000,0.000000,1.500000,1.500000,1.343025,1.500000,0.848509,0.894231,1.000000,2.000000,5.976562,-17.050781,0.000000,0.000000
1.1900,8788,240,0,0,0.001427,0.008263,0.000000,0.000000,1.500000,1.500000,1.342090,1.500000,0.855243,0.896731,1.000000,2.000000,5.998535,-17.028809,0.000000,0.000000
1.2000,8789,240,0,0,0.001603,0.007470,0.000000,0.000000,1.500000,1.500000,1.340996,1.500000,0.861977,0.899230,1.000000,2.000000,6.020508,-17.006836,0.000000,0.000000
1.2100,8790,240,0,0,0.001541,0.007459,0.000000,0.000000,1.500000,1.500000,1.340724,1.500000,0.868711,0.901730,1.000000,2.000000,6.020508,-16.984863,0.000000,0.000000
1.2200,8791,240,0,0,0.001424,0.008096,0.000000,0.000000,1.500000,1.500000,1.341083,1.500000,0.875445,0.904230,1.000000,2.000000,6.042480,-16.984863,0.000000,0.000000
1.2300,8792,240,0,0,0.001338,0.007875,0.000000,0.000000,1.500000,1.500000,1.340852,1.500000,0.882179,0.906730,1.000000,2.000000,6.042480,-16.984863,0.000000,0.000000
1.2400,8793,240,0,0,0.001596,0.007996,0.000000,0.000000,1.500000,1.500000,1.340400,1.500000,0.888914,0.909230,1.000000,2.000000,6.064453,-16.962891,0.000000,0.000000
1.2500,8794,240,0,0,0.001573,0.008111,0.000000,0.000000,1.500000,1.500000,1.338985,1.500000,0.895648,0.911730,1.000000,2.000000,6.064453,-16.962891,0.000000,0.000000
1.2600,8795,240,0,0,0.001893,0.008827,0.000000,0.000000,1.500000,1.500000,1.338831,1.500000,0.902382,0.914229,1.000000,2.000000,6.064453,-16.962891,0.000000,0.000000
1.2700,8796,240,0,0,0.001634,0.009422,0.000000,0.000000,1.500000,1.500000,1.337990,1.500000,0.909116,0.916729,1.000000,2.000000,6.064453,-16.962891,0.000000,0.000000
1.2800,8797,240,0,0,0.001906,0.009501,0.000000,0.000000,1.500000,1.500000,1.338220,1.500000,0.915850,0.919229,1.000000,2.000000,6.064453,-16.962891,0.000000,0.000000
1.2900,8798,240,0,0,0.001770,0.009643,0.000000,0.000000,1.500000,1.500000,1.337971,1.500000,0.922584,0.921729,1.000000,2.000000,6.042480,-16.962891,0.000000,0.000000
1.3000,8799,240,0,0,0.001549,0.008944,0.000000,0.000000,1.500000,1.500000,1.337316,1.500000,0.929318,0.924229,1.000000,2.000000,6.042480,-16.962891,0.000000,0.000000
1.3100,8800,240,0,0,0.001457,0.008961,0.000000,0.000000,1.500000,1.500000,1.337808,1.500000,0.936053,0.926728,1.000000,2.000000,6.042480,-16.984863,0.000000,0.000000
1.3200,8801,240,0,0,0.001483,0.009233,0.000000,0.000000,1.500000,1.500000,1.338586,1.500000,0.942787,0.929228,1.000000,2.000000,6.042480,-16.984863,0.000000,0.000000
1.3300,8802,240,0,0,0.001286,0.009142,0.000000,0.000000,1.500000,1.500000,1.339549,1.500000,0.949521,0.931728,1.000000,2.000000,6.020508,-16.984863,0.000000,0.000000
1.3400,8803,240,0,0,0.001248,0.008556,0.000000,0.000000,1.500000,1.500000,1.339183,1.500000,0.956255,0.934228,1.000000,2.000000,6.020508,-17.006836,0.000000,0.000000
1.3500,8804,240,0,0,0.001211,0.008916,0.000000,0.000000,1.500000,1.500000,1.339765,1.500000,0.962989,0.936728,1.000000,2.000000,5.998535,-17.006836,0.000000,0.000000
1.3600,8805,240,0,0,0.001354,0.008994,0.000000,0.000000,1.500000,1.500000,1.341109,1.500000,0.969723,0.939228,1.000000,2.000000,5.976562,-17.028809,0.000000,0.000000
1.3700,8806,240,0,0,0.001411,0.009038,0.000000,0.000000,1.500000,1.500000,1.340975,1.500000,0.976457,0.941727,1.000000,2.000000,5.976562,-17.028809,0.000000,0.000000
1.3800,8807,240,0,0,0.001506,0.009001,0.000000,0.000000,1.500000,1.500000,1.341612,1.500000,0.983191,0.944227,1.000000,2.000000,5.976562,-17.028809,0.000000,0.000000
1.3900,8808,240,0,0,0.001704,0.009431,0.000000,0.000000,1.500000,1.500000,1.343216,1.500000,0.989926,0.946727,1.000000,2.000000,5.954590,-17.050781,0.000000,0.000000
1.4000,8809,240,0,0,0.001421,0.009124,0.000000,0.000000,1.500000,1.500000,1.342028,1.500000,0.996660,0.949227,1.000000,2.000000,5.954590,-17.050781,0.000000,0.000000
1.4100,8810,240,0,0,0.001337,0.008791,0.000000,0.000000,1.500000,1.500000,1.343540,1.500000,0.003394,0.951727,1.000000,2.000000,5.932617,-17.072754,0.000000,0.000000
1.4200,8811,240,0,0,0.001871,0.008934,0.000000,0.000000,1.500000,1.500000,1.343359,1.500000,0.010128,0.954226,1.000000,2.000000,5.932617,-17.072754,0.000000,0.000000
1.4300,8812,240,0,0,0.001939,0.008731,0.000000,0.000000,1.500000,1.500000,1.344725,1.500000,0.016862,0.956726,1.000000,2.000000,5.910645,-17.094727,0.000000,0.000000
1.4400,8813,240,0,0,0.001966,0.008722,0.000000,0.000000,1.500000,1.500000,1.345626,1.500000,0.023596,0.959226,1.000000,2.000000,5.910645,-17.094727,0.000000,0.000000
1.4500,8814,240,0,0,0.001848,0.008735,0.000000,0.000000,1.500000,1.500000,1.346113,1.500000,0.030330,0.961726,1.000000,2.000000,5.888672,-17.094727,0.000000,0.000000
1.4600,8815,240,0,0,0.001684,0.009008,0.000000,0.000000,1.500000,1.500000,1.347785,1.500000,0.037064,0.964226,1.000000,2.000000,5.888672,-17.116699,0.000000,0.000000
1.4700,8816,240,0,0,0.001492,0.009044,0.000000,0.000000,1.500000,1.500000,1.346836,1.500000,0.043798,0.966726,1.000000,2.000000,5.866699,-17.116699,0.000000,0.000000
1.4800,8817,240,0,0,0.001430,0.009028,0.000000,0.000000,1.500000,1.500000,1.348615,1.500000,0.050532,0.969225,1.000000,2.000000,5.866699,-17.116699,0.000000,0.000000
1.4900,8818,240,0,0,0.001661,0.009128,0.000000,0.000000,1.500000,1.500000,1.348936,1.500000,0.057266,0.971725,1.000000,2.000000,5.866699,-17.116699,0.000000,0.000000
1.5000,8819,240,0,0,0.001878,0.009375,0.000000,0.000000,1.500000,1.500000,1.350360,1.500000,0.064000,0.974225,1.000000,2.000000,5.844727,-17.138672,0.000000,0.000000
1.5100,8820,240,0,0,0.002263,0.009721,0.000000,0.000000,1.500000,1.500000,1.349938,1.500000,0.070734,0.976725,1.000000,2.000000,5.844727,-17.138672,0.000000,0.000000
1.5200,8821,240,0,0,0.002354,0.009753,0.000000,0.000000,1.500000,1.500000,1.351064,1.500000,0.077468,0.979225,1.000000,2.000000,5.822754,-17.160645,0.000000,0.000000
1.5300,8822,240,0,0,0.002746,0.009500,0.000000,0.000000,1.500000,1.500000,1.350913,1.500000,0.084202,0.981724,1.000000,2.000000,5.822754,-17.160645,0.000000,0.000000
1.5400,8823,240,0,0,0.002825,0.009025,0.000000,0.000000,1.500000,1.500000,1.351459,1.500000,0.090936,0.984224,1.000000,2.000000,5.822754,-17.160645,0.000000,0.000000
1.5500,8824,240,0,0,0.002950,0.009150,0.000000,0.000000,1.500000,1.500000,1.351297,1.500000,0.097670,0.986724,1.000000,2.000000,5.822754,-17.160645,0.000000,0.000000
1.5600,8825,240,0,0,0.002990,0.009316,0.000000,0.000000,1.500000,1.500000,1.352513,1.500000,0.104404,0.989224,1.000000,2.000000,5.822754,-17.160645,0.000000,0.000000
1.5700,8826,240,0,0,0.002822,0.009220,0.000000,0.000000,1.500000,1.500000,1.353212,1.500000,0.111138,0.991724,1.000000,2.000000,5.822754,-17.160645,0.000000,0.000000
1.5800,8827,240,0,0,0.002510,0.009766,0.000000,0.000000,1.500000,1.500000,1.353796,1.500000,0.117872,0.994224,1.000000,2.000000,5.844727,-17.160645,0.000000,0.000000
1.5900,8828,240,0,0,0.002674,0.009897,0.000000,0.000000,1.500000,1.500000,1.353689,1.500000,0.124606,0.996723,1.000000,2.000000,5.844727,-17.138672,0.000000,0.000000
1.6000,8829,240,0,0,0.002561,0.009809,0.000000,0.000000,1.500000,1.500000,1.353965,1.500000,0.131340,0.999223,1.000000,2.000000,5.866699,-17.138672,0.000000,0.000000
1.6100,8830,240,0,0,0.002702,0.009788,0.000000,0.000000,1.500000,1.500000,1.354251,1.500000,0.138074,0.001723,1.000000,2.000000,5.866699,-17.116699,0.000000,0.000000
1.6200,8831,240,0,0,0.002456,0.009747,0.000000,0.000000,1.500000,1.500000,1.353879,1.500000,0.144808,0.004223,1.000000,2.000000,5.888672,-17.094727,0.000000,0.000000
1.6300,8832,240,0,0,0.002320,0.009675,0.000000,0.000000,1.500000,1.500000,1.354733,1.500000,0.151542,0.006723,1.000000,2.000000,5.888672,-17.072754,0.000000,0.000000
1.6400,8833,240,0,0,0.002477,0.009839,0.000000,0.000000,1.500000,1.500000,1.354570,1.500000,0.158276,0.009223,1.000000,2.000000,5.910645,-17.072754,0.000000,0.000000
1.6500,8834,240,0,0,0.002615,0.009726,0.000000,0.000000,1.500000,1.500000,1.354736,1.500000,0.165010,0.011723,1.000000,2.000000,5.910645,-17.050781,0.000000,0.000000
1.6600,8835,240,0,0,0.002378,0.009501,0.000000,0.000000,1.500000,1.500000,1.354715,1.500000,0.171744,0.014223,1.000000,2.000000,5.932617,-17.050781,0.000000,0.000000
1.6700,8837,240,0,0,0.002281,0.009329,0.000000,0.000000,1.500000,1.500000,1.355245,1.500000,0.185212,0.019223,1.000000,2.000000,5.954590,-17.028809,0.000000,0.000000
1.6800,8838,240,0,0,0.001881,0.009049,0.000000,0.000000,1.500000,1.500000,1.355400,1.500000,0.191946,0.021723,1.000000,2.000000,5.976562,-17.028809,0.000000,0.000000
1.6900,8839,240,0,0,0.001725,0.009345,0.000000,0.000000,1.500000,1.500000,1.356510,1.500000,0.198679,0.024223,1.000000,2.000000,5.976562,-17.006836,0.000000,0.000000
1.7000,8840,240,0,0,0.001937,0.009728,0.000000,0.000000,1.500000,1.500000,1.356690,1.500000,0.205413,0.026723,1.000000,2.000000,5.998535,-17.006836,0.000000,0.000000
1.7100,8841,240,0,0,0.001840,0.010054,0.000000,0.000000,1.500000,1.500000,1.356923,1.500000,0.212147,0.029223,1.000000,2.000000,5.998535,-16.984863,0.000000,0.000000
1.7200,8842,240,0,0,0.001655,0.009561,0.000000,0.000000,1.500000,1.500000,1.357183,1.500000,0.218881,0.031723,1.000000,2.000000,5.998535,-16.984863,0.000000,0.000000
1.7300,8843,240,0,0,0.001913,0.009626,0.000000,0.000000,1.500000,1.500000,1.357298,1.500000,0.225615,0.034223,1.000000,2.000000,6.020508,-16.962891,0.000000,0.000000
1.7400,8844,240,0,0,0.002185,0.009169,0.000000,0.000000,1.500000,1.500000,1.357409,1.500000,0.232349,0.036723,1.000000,2.000000,6.020508,-16.962891,0.000000,0.000000
1.7500,8845,240,0,0,0.002073,0.008322,0.000000,0.000000,1.500000,1.500000,1.357525,1.500000,0.239083,0.039223,1.000000,2.000000,6.020508,-16.962891,0.000000,0.000000
1.7600,8846,240,0,0,0.001836,0.008145,0.000000,0.000000,1.500000,1.500000,1.358875,1.500000,0.245817,0.041723,1.000000,2.000000,6.020508,-16.940918,0.000000,0.000000
1.7700,8847,240,0,0,0.001943,0.008170,0.000000,0.000000,1.500000,1.500000,1.359007,1.500000,0.252551,0.044223,1.000000,2.000000,6.042480,-16.940918,0.000000,0.000000
1.7800,8848,240,0,0,0.001816,0.008235,0.000000,0.000000,1.500000,1.500000,1.359301,1.500000,0.259286,0.046723,1.000000,2.000000,6.042480,-16.940918,0.000000,0.000000
1.7900,8849,240,0,0,0.001512,0.008752,0.000000,0.000000,1.500000,1.500000,1.360429,1.500000,0.266020,0.049223,1.000000,2.000000,6.042480,-16.940918,0.000000,0.000000
1.8000,8850,240,0,0,0.001534,0.008919,0.000000,0.000000,1.500000,1.500000,1.360200,1.500000,0.272754,0.051723,1.000000,2.000000,6.042480,-16.918945,0.000000,0.000000
1.8100,8851,240,0,0,0.001495,0.008431,0.000000,0.000000,1.500000,1.500000,1.361025,1.500000,0.279488,0.054223,1.000000,2.000000,6.042480,-16.918945,0.000000,0.000000
1.8200,8852,240,0,0,0.001549,0.009014,0.000000,0.000000,1.500000,1.500000,1.361745,1.500000,0.286222,0.056723,1.000000,2.000000,6.042480,-16.918945,0.000000,0.000000
1.8300,8853,240,0,0,0.001470,0.008948,0.000000,0.000000,1.500000,1.500000,1.361741,1.500000,0.292956,0.059223,1.000000,2.000000,6.042480,-16.918945,0.000000,0.000000
1.8400,8854,240,0,0,0.001343,0.008613,0.000000,0.000000,1.500000,1.500000,1.361315,1.500000,0.299690,0.061723,1.000000,2.000000,6.042480,-16.918945,0.000000,0.000000
1.8500,8855,240,0,0,0.001399,0.008560,0.000000,0.000000,1.500000,1.500000,1.362502,1.500000,0.306424,0.064223,1.000000,2.000000,6.042480,-16.918945,0.000000,0.000000
1.8600,8856,240,0,0,0.001488,0.008658,0.000000,0.000000,1.500000,1.500000,1.362961,1.500000,0.313159,0.066723,1.000000,2.000000,6.042480,-16.918945,0.000000,0.000000
1.8700,8857,240,0,0,0.001298,0.008692,0.000000,0.000000,1.500000,1.500000,1.363435,1.500000,0.319893,0.069223,1.000000,2.000000,6.042480,-16.918945,0.000000,0.000000
1.8800,8858,240,0,0,0.001389,0.008910,0.000000,0.000000,1.500000,1.500000,1.364706,1.500000,0.326627,0.071723,1.000000,2.000000,6.042480,-16.918945,0.000000,0.000000
1.8900,8859,240,0,0,0.001286,0.008977,0.000000,0.000000,1.500000,1.500000,1.364548,1.500000,0.333361,0.074223,1.000000,2.000000,6.042480,-16.940918,0.000000,0.000000
1.9000,8860,240,0,0,0.001395,0.009103,0.000000,0.000000,1.500000,1.500000,1.364751,1.500000,0.340095,0.076723,1.000000,2.000000,6.020508,-16.940918,0.000000,0.000000
1.9100,8861,240,0,0,0.001253,0.009283,0.000000,0.000000,1.500000,1.500000,1.365621,1.500000,0.346829,0.079223,1.000000,2.000000,6.020508,-16.940918,0.000000,0.000000
1.9200,8862,240,0,0,0.001540,0.008550,0.000000,0.000000,1.500000,1.500000,1.366353,1.500000,0.353563,0.081723,1.000000,2.000000,6.020508,-16.940918,0.000000,0.000000
1.9300,8863,240,0,0,0.001383,0.008781,0.000000,0.000000,1.500000,1.500000,1.366965,1.500000,0.360298,0.084223,1.000000,2.000000,6.020508,-16.940918,0.000000,0.000000
1.9400,8864,240,0,0,0.001473,0.008520,0.000000,0.000000,1.500000,1.500000,1.366574,1.500000,0.367032,0.086723,1.000000,2.000000,5.998535,-16.962891,0.000000,0.000000
1.9500,8865,240,0,0,0.001456,0.008774,0.000000,0.000000,1.500000,1.500000,1.365855,1.500000,0.373766,0.089223,1.000000,2.000000,5.998535,-16.962891,0.000000,0.000000
1.9600,8866,240,0,0,0.001458,0.009234,0.000000,0.000000,1.500000,1.500000,1.366682,1.500000,0.380500,0.091723,1.000000,2.000000,5.998535,-16.962891,0.000000,0.000000
1.9700,8867,240,0,0,0.001563,0.009470,0.000000,0.000000,1.500000,1.500000,1.366220,1.500000,0.387234,0.094223,1.000000,2.000000,5.998535,-16.962891,0.000000,0.000000
1.9800,8868,240,0,0,0.001467,0.009378,0.000000,0.000000,1.500000,1.500000,1.366049,1.500000,0.393968,0.096723,1.000000,2.000000,5.998535,-16.962891,0.000000,0.000000
1.9900,8869,240,0,0,0.001377,0.008858,0.000000,0.000000,1.500000,1.500000,1.365642,1.500000,0.400702,0.099223,1.000000,2.000000,5.998535,-16.962891,0.000000,0.000000
2.0000,8870,240,0,0,0.001459,0.008613,0.000000,0.000000,1.500000,1.500000,1.366827,1.500000,0.407436,0.101723,1.000000,2.000000,5.998535,-16.962891,0.000000,0.000000
2.0100,8871,240,0,0,0.001369,0.009211,0.000000,0.000000,1.500000,1.500000,1.367912,1.500000,0.414171,0.104223,1.000000,2.000000,6.020508,-16.962891,0.000000,0.000000
2.0200,8872,240,0,0,0.001721,0.009547,0.000000,0.000000,1.500000,1.500000,1.367925,1.500000,0.420905,0.106723,1.000000,2.000000,6.020508,-16.940918,0.000000,0.000000
2.0300,8873,240,0,0,0.001902,0.009401,0.000000,0.000000,1.500000,1.500000,1.367527,1.500000,0.427639,0.109223,1.000000,2.000000,6.020508,-16.940918,0.000000,0.000000
2.0400,8874,240,0,0,0.002147,0.009291,0.000000,0.000000,1.500000,1.500000,1.368055,1.500000,0.434373,0.111723,1.000000,2.000000,6.020508,-16.940918,0.000000,0.000000
2.0500,8875,240,0,0,0.002028,0.009377,0.000000,0.000000,1.500000,1.500000,1.368684,1.500000,0.441107,0.114223,1.000000,2.000000,6.042480,-16.940918,0.000000,0.000000
2.0600,8876,240,0,0,0.001751,0.009435,0.000000,0.000000,1.500000,1.500000,1.368716,1.500000,0.447841,0.116723,1.000000,2.000000,6.042480,-16.918945,0.000000,0.000000
2.0700,8877,240,0,0,0.001757,0.009401,0.000000,0.000000,1.500000,1.500000,1.369099,1.500000,0.454575,0.119223,1.000000,2.000000,6.042480,-16.918945,0.000000,0.000000
2.0800,8878,240,0,0,0.001685,0.009466,0.000000,0.000000,1.500000,1.500000,1.369493,1.500000,0.461310,0.121722,1.000000,2.000000,6.064453,-16.918945,0.000000,0.000000
2.0900,8879,240,0,0,0.001767,0.009813,0.000000,0.000000,1.500000,1.500000,1.369983,1.500000,0.468044,0.124222,1.000000,2.000000,6.064453,-16.896973,0.000000,0.000000
2.1000,8880,240,0,0,0.001502,0.009431,0.000000,0.000000,1.500000,1.500000,1.369129,1.500000,0.474778,0.126722,1.000000,2.000000,6.064453,-16.896973,0.000000,0.000000
2.1100,8881,240,0,0,0.001402,0.008868,0.000000,0.000000,1.500000,1.500000,1.370413,1.500000,0.481512,0.129222,1.000000,2.000000,6.086426,-16.896973,0.000000,0.000000
2.1200,8882,240,0,0,0.001416,0.008452,0.000000,0.000000,1.500000,1.500000,1.369912,1.500000,0.488246,0.131722,1.000000,2.000000,6.086426,-16.896973,0.000000,0.000000
2.1300,8883,240,0,0,0.001389,0.008553,0.000000,0.000000,1.500000,1.500000,1.370549,1.500000,0.494980,0.134222,1.000000,2.000000,6.086426,-16.896973,0.000000,0.000000
2.1400,8884,240,0,0,0.001342,0.007865,0.000000,0.000000,1.500000,1.500000,1.370828,1.500000,0.501714,0.136722,1.000000,2.000000,6.086426,-16.875000,0.000000,0.000000
2.1500,8885,240,0,0,0.001538,0.007962,0.000000,0.000000,1.500000,1.500000,1.371006,1.500000,0.508448,0.139222,1.000000,2.000000,6.086426,-16.875000,0.000000,0.000000
2.1600,8887,240,0,0,0.002046,0.008619,0.000000,0.000000,1.500000,1.500000,1.371055,1.500000,0.521917,0.144222,1.000000,2.000000,6.086426,-16.896973,0.000000,0.000000
2.1700,8888,240,0,0,0.001994,0.008643,0.000000,0.000000,1.500000,1.500000,1.372282,1.500000,0.528651,0.146722,1.000000,2.000000,6.086426,-16.896973,0.000000,0.000000
2.1800,8889,240,0,0,0.001724,0.007863,0.000000,0.000000,1.500000,1.500000,1.371625,1.500000,0.535385,0.149222,1.000000,2.000000,6.086426,-16.896973,0.000000,0.000000
2.1900,8890,240,0,0,0.001820,0.008413,0.000000,0.000000,1.500000,1.500000,1.371378,1.500000,0.542119,0.151722,1.000000,2.000000,6.086426,-16.896973,0.000000,0.000000
2.2000,8891,240,0,0,0.001718,0.008485,0.000000,0.000000,1.500000,1.500000,1.371793,1.500000,0.548853,0.154222,1.000000,2.000000,6.086426,-16.896973,0.000000,0.000000
2.2100,8892,240,0,0,0.001479,0.008743,0.000000,0.000000,1.500000,1.500000,1.372205,1.500000,0.555587,0.156722,1.000000,2.000000,6.086426,-16.896973,0.000000,0.000000
2.2200,8893,240,0,0,0.001530,0.008615,0.000000,0.000000,1.500000,1.500000,1.373250,1.500000,0.562321,0.159222,1.000000,2.000000,6.086426,-16.896973,0.000000,0.000000
2.2300,8894,240,0,0,0.001536,0.008579,0.000000,0.000000,1.500000,1.500000,1.372843,1.500000,0.569056,0.161722,1.000000,2.000000,6.086426,-16.896973,0.000000,0.000000
2.2400,8895,240,0,0,0.001565,0.008296,0.000000,0.000000,1.500000,1.500000,1.373255,1.500000,0.575790,0.164222,1.000000,2.000000,6.086426,-16.896973,0.000000,0.000000
2.2500,8896,240,0,0,0.001755,0.008494,0.000000,0.000000,1.500000,1.500000,1.373998,1.500000,0.582524,0.166722,1.000000,2.000000,6.086426,-16.896973,0.000000,0.000000
2.2600,8897,240,0,0,0.001767,0.008758,0.000000,0.000000,1.500000,1.500000,1.373421,1.500000,0.589258,0.169222,1.000000,2.000000,6.086426,-16.875000,0.000000,0.000000
2.2700,8898,240,0,0,0.001975,0.008865,0.000000,0.000000,1.500000,1.500000,1.373629,1.500000,0.595992,0.171722,1.000000,2.000000,6.086426,-16.875000,0.000000,0.000000
2.2800,8899,240,0,0,0.001699,0.008968,0.000000,0.000000,1.500000,1.500000,1.374071,1.500000,0.602726,0.174222,1.000000,2.000000,6.108398,-16.875000,0.000000,0.000000
2.2900,8900,240,0,0,0.001644,0.008616,0.000000,0.000000,1.500000,1.500000,1.374255,1.500000,0.609460,0.176722,1.000000,2.000000,6.108398,-16.875000,0.000000,0.000000
2.3000,8901,240,0,0,0.001929,0.008712,0.000000,0.000000,1.500000,1.500000,1.374764,1.500000,0.616195,0.179222,1.000000,2.000000,6.108398,-16.875000,0.000000,0.000000
2.3100,8902,240,0,0,0.001867,0.008905,0.000000,0.000000,1.500000,1.500000,1.375094,1.500000,0.622929,0.181722,1.000000,2.000000,6.108398,-16.875000,0.000000,0.000000
2.3200,8903,240,0,0,0.001836,0.008925,0.000000,0.000000,1.500000,1.500000,1.375125,1.500000,0.629663,0.184222,1.000000,2.000000,6.108398,-16.853027,0.000000,0.000000
2.3300,8904,240,0,0,0.001748,0.008747,0.000000,0.000000,1.500000,1.500000,1.376113,1.500000,0.636397,0.186722,1.000000,2.000000,6.108398,-16.853027,0.000000,0.000000
2.3400,8905,240,0,0,0.001730,0.009032,0.000000,0.000000,1.500000,1.500000,1.375865,1.500000,0.643131,0.189222,1.000000,2.000000,6.108398,-16.853027,0.000000,0.000000
2.3500,8906,240,0,0,0.001839,0.009580,0.000000,0.000000,1.500000,1.500000,1.375482,1.500000,0.649865,0.191722,1.000000,2.000000,6.108398,-16.853027,0.000000,0.000000
2.3600,8907,240,0,0,0.001686,0.010048,0.000000,0.000000,1.500000,1.500000,1.374832,1.500000,0.656599,0.194222,1.000000,2.000000,6.108398,-16.853027,0.000000,0.000000
2.3700,8908,240,0,0,0.001486,0.009939,0.000000,0.000000,1.500000,1.500000,1.374979,1.500000,0.663333,0.196722,1.000000,2.000000,6.108398,-16.875000,0.000000,0.000000
2.3800,8909,240,0,0,0.001365,0.010405,0.000000,0.000000,1.500000,1.500000,1.375879,1.500000,0.670068,0.199221,1.000000,2.000000,6.108398,-16.875000,0.000000,0.000000
2.3900,8910,240,0,0,0.001379,0.009819,0.000000,0.000000,1.500000,1.500000,1.375911,1.500000,0.676802,0.201721,1.000000,2.000000,6.086426,-16.875000,0.000000,0.000000
2.4000,8911,240,0,0,0.001652,0.009797,0.000000,0.000000,1.500000,1.500000,1.376204,1.500000,0.683536,0.204221,1.000000,2.000000,6.086426,-16.875000,0.000000,0.000000
2.4100,8912,240,0,0,0.001635,0.009545,0.000000,0.000000,1.500000,1.500000,1.376477,1.500000,0.690270,0.206721,1.000000,2.000000,6.086426,-16.875000,0.000000,0.000000
2.4200,8913,240,0,0,0.001727,0.009572,0.000000,0.000000,1.500000,1.500000,1.376312,1.500000,0.697004,0.209221,1.000000,2.000000,6.086426,-16.875000,0.000000,0.000000
2.4300,8914,240,0,0,0.001596,0.009371,0.000000,0.000000,1.500000,1.500000,1.377351,1.500000,0.703738,0.211721,1.000000,2.000000,6.086426,-16.875000,0.000000,0.000000
2.4400,8915,240,0,0,0.001419,0.009352,0.000000,0.000000,1.500000,1.500000,1.377404,1.500000,0.710472,0.214221,1.000000,2.000000,6.086426,-16.875000,0.000000,0.000000
2.4500,8916,240,0,0,0.001460,0.009542,0.000000,0.000000,1.500000,1.500000,1.377651,1.500000,0.717207,0.216721,1.000000,2.000000,6.086426,-16.875000,0.000000,0.000000
2.4600,8917,240,0,0,0.001386,0.009944,0.000000,0.000000,1.500000,1.500000,1.378048,1.500000,0.723941,0.219221,1.000000,2.000000,6.086426,-16.875000,0.000000,0.000000
2.4700,8918,240,0,0,0.001643,0.010297,0.000000,0.000000,1.500000,1.500000,1.378258,1.500000,0.730675,0.221721,1.000000,2.000000,6.086426,-16.875000,0.000000,0.000000
2.4800,8919,240,0,0,0.001718,0.009803,0.000000,0.000000,1.500000,1.500000,1.377968,1.500000,0.737409,0.224221,1.000000,2.000000,6.086426,-16.875000,0.000000,0.000000
2.4900,8920,240,0,0,0.001508,0.009104,0.000000,0.000000,1.500000,1.500000,1.378128,1.500000,0.744143,0.226721,1.000000,2.000000,6.086426,-16.875000,0.000000,0.000000
2.5000,8921,240,0,0,0.001583,0.009078,0.000000,0.000000,1.500000,1.500000,1.378962,1.500000,0.750877,0.229221,1.000000,2.000000,6.086426,-16.875000,0.000000,0.000000
2.5100,8922,240,0,0,0.001628,0.008792,0.000000,0.000000,1.500000,1.500000,1.379075,1.500000,0.757611,0.231721,1.000000,2.000000,6.086426,-16.875000,0.000000,0.000000
2.5200,8923,240,0,0,0.001400,0.009222,0.000000,0.000000,1.500000,1.500000,1.379182,1.500000,0.764345,0.234221,1.000000,2.000000,6.086426,-16.875000,0.000000,0.000000
2.5300,8924,240,0,0,0.001450,0.009163,0.000000,0.000000,1.500000,1.500000,1.379507,1.500000,0.771080,0.236721,1.000000,2.000000,6.086426,-16.875000,0.000000,0.000000
2.5400,8925,240,0,0,0.001533,0.009126,0.000000,0.000000,1.500000,1.500000,1.380363,1.500000,0.777814,0.239221,1.000000,2.000000,6.086426,-16.875000,0.000000,0.000000
2.5500,8926,240,0,0,0.001427,0.009270,0.000000,0.000000,1.500000,1.500000,1.381315,1.500000,0.784548,0.241721,1.000000,2.000000,6.086426,-16.875000,0.000000,0.000000
2.5600,8927,240,0,0,0.001408,0.009204,0.000000,0.000000,1.500000,1.500000,1.381410,1.500000,0.791282,0.244221,1.000000,2.000000,6.086426,-16.875000,0.000000,0.000000
2.5700,8928,240,0,0,0.001580,0.009608,0.000000,0.000000,1.500000,1.500000,1.380475,1.500000,0.798016,0.246721,1.000000,2.000000,6.086426,-16.875000,0.000000,0.000000
2.5800,8929,240,0,0,0.001659,0.009459,0.000000,0.000000,1.500000,1.500000,1.380629,1.500000,0.804750,0.249221,1.000000,2.000000,6.086426,-16.875000,0.000000,0.000000
2.5900,8930,240,0,0,0.001608,0.009357,0.000000,0.000000,1.500000,1.500000,1.381209,1.500000,0.811484,0.251721,1.000000,2.000000,6.086426,-16.875000,0.000000,0.000000
2.6000,8931,240,0,0,0.001865,0.009320,0.000000,0.000000,1.500000,1.500000,1.381570,1.500000,0.818219,0.254221,1.000000,2.000000,6.086426,-16.875000,0.000000,0.000000
2.6100,8932,240,0,0,0.001969,0.008853,0.000000,0.000000,1.500000,1.500000,1.381451,1.500000,0.824953,0.256721,1.000000,2.000000,6.086426,-16.875000,0.000000,0.000000
2.6200,8933,240,0,0,0.002200,0.009075,0.000000,0.000000,1.500000,1.500000,1.381911,1.500000,0.831687,0.259221,1.000000,2.000000,6.086426,-16.875000,0.000000,0.000000
2.6300,8934,240,0,0,0.002127,0.009389,0.000000,0.000000,1.500000,1.500000,1.381634,1.500000,0.838421,0.261721,1.000000,2.000000,6.086426,-16.875000,0.000000,0.000000
2.6400,8935,240,0,0,0.001968,0.009660,0.000000,0.000000,1.500000,1.500000,1.381859,1.500000,0.845155,0.264221,1.000000,2.000000,6.086426,-16.875000,0.000000,0.000000
2.6500,8937,240,0,0,0.002283,0.010184,0.000000,0.000000,1.500000,1.500000,1.383055,1.500000,0.858623,0.269222,1.000000,2.000000,6.086426,-16.875000,0.000000,0.000000
2.6600,8938,240,0,0,0.001961,0.009861,0.000000,0.000000,1.500000,1.500000,1.382372,1.500000,0.865357,0.271722,1.000000,2.000000,6.064453,-16.875000,0.000000,0.000000
2.6700,8939,240,0,0,0.001743,0.009989,0.000000,0.000000,1.500000,1.500000,1.383026,1.500000,0.872092,0.274222,1.000000,2.000000,6.064453,-16.896973,0.000000,0.000000
2.6800,8940,240,0,0,0.001781,0.009702,0.000000,0.000000,1.500000,1.500000,1.383189,1.500000,0.878826,0.276722,1.000000,2.000000,6.064453,-16.896973,0.000000,0.000000
2.6900,8941,240,0,0,0.001765,0.009240,0.000000,0.000000,1.500000,1.500000,1.382309,1.500000,0.885560,0.279222,1.000000,2.000000,6.064453,-16.896973,0.000000,0.000000
2.7000,8942,240,0,0,0.001548,0.009251,0.000000,0.000000,1.500000,1.500000,1.383075,1.500000,0.892294,0.281722,1.000000,2.000000,6.064453,-16.896973,0.000000,0.000000
2.7100,8943,240,0,0,0.001493,0.009507,0.000000,0.000000,1.500000,1.500000,1.382642,1.500000,0.899028,0.284222,1.000000,2.000000,6.042480,-16.896973,0.000000,0.000000
2.7200,8944,240,0,0,0.001339,0.009884,0.000000,0.000000,1.500000,1.500000,1.383921,1.500000,0.905762,0.286723,1.000000,2.000000,6.042480,-16.896973,0.000000,0.000000
2.7300,8945,240,0,0,0.001727,0.009501,0.000000,0.000000,1.500000,1.500000,1.383453,1.500000,0.912496,0.289223,1.000000,2.000000,6.042480,-16.918945,0.000000,0.000000
2.7400,8946,240,0,0,0.001569,0.009410,0.000000,0.000000,1.500000,1.500000,1.384002,1.500000,0.919231,0.291723,1.000000,2.000000,6.042480,-16.918945,0.000000,0.000000
2.7500,8947,240,0,0,0.001460,0.009470,0.000000,0.000000,1.500000,1.500000,1.384115,1.500000,0.925965,0.294223,1.000000,2.000000,6.042480,-16.918945,0.000000,0.000000
2.7600,8948,240,0,0,0.001633,0.009511,0.000000,0.000000,1.500000,1.500000,1.385481,1.500000,0.932699,0.296723,1.000000,2.000000,6.020508,-16.918945,0.000000,0.000000
2.7700,8949,240,0,0,0.001399,0.010134,0.000000,0.000000,1.500000,1.500000,1.384979,1.500000,0.939433,0.299223,1.000000,2.000000,6.020508,-16.940918,0.000000,0.000000
2.7800,8950,240,0,0,0.001426,0.009862,0.000000,0.000000,1.500000,1.500000,1.385218,1.500000,0.946167,0.301723,1.000000,2.000000,6.020508,-16.940918,0.000000,0.000000
2.7900,8951,240,0,0,0.001515,0.009882,0.000000,0.000000,1.500000,1.500000,1.385758,1.500000,0.952901,0.304223,1.000000,2.000000,5.998535,-16.940918,0.000000,0.000000
2.8000,8952,240,0,0,0.001415,0.010039,0.000000,0.000000,1.500000,1.500000,1.386338,1.500000,0.959635,0.306723,1.000000,2.000000,5.998535,-16.940918,0.000000,0.000000
2.8100,8953,240,0,0,0.001363,0.010408,0.000000,0.000000,1.500000,1.500000,1.385478,1.500000,0.966369,0.309224,1.000000,2.000000,5.998535,-16.940918,0.000000,0.000000
2.8200,8954,240,0,0,0.001285,0.010181,0.000000,0.000000,1.500000,1.500000,1.385455,1.500000,0.973104,0.311724,1.000000,2.000000,5.998535,-16.940918,0.000000,0.000000
2.8300,8955,240,0,0,0.001316,0.009838,0.000000,0.000000,1.500000,1.500000,1.385539,1.500000,0.979838,0.314224,1.000000,2.000000,5.998535,-16.940918,0.000000,0.000000
2.8400,8956,240,0,0,0.001471,0.009667,0.000000,0.000000,1.500000,1.500000,1.386312,1.500000,0.986572,0.316724,1.000000,2.000000,5.998535,-16.940918,0.000000,0.000000
2.8500,8957,240,0,0,0.001350,0.009659,0.000000,0.000000,1.500000,1.500000,1.385152,1.500000,0.993306,0.319224,1.000000,2.000000,5.998535,-16.962891,0.000000,0.000000
2.8600,8958,240,0,0,0.001338,0.009322,0.000000,0.000000,1.500000,1.500000,1.385162,1.500000,0.000040,0.321724,1.000000,2.000000,5.998535,-16.962891,0.000000,0.000000
2.8700,8959,240,0,0,0.001360,0.009170,0.000000,0.000000,1.500000,1.500000,1.385422,1.500000,0.006774,0.324224,1.000000,2.000000,5.998535,-16.962891,0.000000,0.000000
2.8800,8960,240,0,0,0.001436,0.009438,0.000000,0.000000,1.500000,1.500000,1.386292,1.500000,0.013508,0.326724,1.000000,2.000000,5.976562,-16.962891,0.000000,0.000000
2.8900,8961,240,0,0,0.001209,0.009935,0.000000,0.000000,1.500000,1.500000,1.386596,1.500000,0.020242,0.329225,1.000000,2.000000,5.976562,-16.984863,0.000000,0.000000
2.9000,8962,240,0,0,0.001479,0.010743,0.000000,0.000000,1.500000,1.500000,1.386207,1.500000,0.026976,0.331725,1.000000,2.000000,5.976562,-16.984863,0.000000,0.000000
2.9100,8963,240,0,0,0.001431,0.010433,0.000000,0.000000,1.500000,1.500000,1.385634,1.500000,0.033710,0.334225,1.000000,2.000000,5.954590,-16.984863,0.000000,0.000000
2.9200,8964,240,0,0,0.001755,0.010441,0.000000,0.000000,1.500000,1.500000,1.386212,1.500000,0.040444,0.336725,1.000000,2.000000,5.954590,-17.006836,0.000000,0.000000
2.9300,8965,240,0,0,0.001647,0.010161,0.000000,0.000000,1.500000,1.500000,1.386416,1.500000,0.047178,0.339225,1.000000,2.000000,5.954590,-17.006836,0.000000,0.000000
2.9400,8966,240,0,0,0.001853,0.010336,0.000000,0.000000,1.500000,1.500000,1.386436,1.500000,0.053912,0.341725,1.000000,2.000000,5.932617,-17.006836,0.000000,0.000000
2.9500,8967,240,0,0,0.001935,0.010122,0.000000,0.000000,1.500000,1.500000,1.386240,1.500000,0.060646,0.344225,1.000000,2.000000,5.932617,-17.006836,0.000000,0.000000
2.9600,8968,240,0,0,0.001706,0.009809,0.000000,0.000000,1.500000,1.500000,1.386401,1.500000,0.067380,0.346725,1.000000,2.000000,5.932617,-17.028809,0.000000,0.000000
2.9700,8969,240,0,0,0.001587,0.009460,0.000000,0.000000,1.500000,1.500000,1.386582,1.500000,0.074114,0.349225,1.000000,2.000000,5.932617,-17.028809,0.000000,0.000000
2.9800,8970,240,0,0,0.001803,0.009154,0.000000,0.000000,1.500000,1.500000,1.384881,1.500000,0.080848,0.351726,1.000000,2.000000,5.910645,-17.028809,0.000000,0.000000
2.9900,8971,240,0,0,0.001902,0.009362,0.000000,0.000000,1.500000,1.500000,1.385743,1.500000,0.087582,0.354226,1.000000,2.000000,5.910645,-17.050781,0.000000,0.000000
3.0000,8972,240,0,0,0.002064,0.009240,0.000000,0.000000,1.500000,1.500000,1.386081,1.500000,0.094316,0.356726,1.000000,2.000000,5.910645,-17.050781,0.000000,0.000000
3.0100,8973,240,0,0,0.002240,0.009459,0.000000,0.000000,1.500000,1.500000,1.386659,1.500000,0.101050,0.359226,1.000000,2.000000,5.888672,-17.050781,0.000000,0.000000
3.0200,8974,240,0,0,0.002004,0.009483,0.000000,0.000000,1.500000,1.500000,1.387068,1.500000,0.107784,0.361726,1.000000,2.000000,5.888672,-17.050781,0.000000,0.000000
3.0300,8975,240,0,0,0.002305,0.009593,0.000000,0.000000,1.500000,1.500000,1.387555,1.500000,0.114518,0.364226,1.000000,2.000000,5.888672,-17.072754,0.000000,0.000000
3.0400,8976,240,0,0,0.002321,0.009652,0.000000,0.000000,1.500000,1.500000,1.387416,1.500000,0.121252,0.366726,1.000000,2.000000,5.888672,-17.072754,0.000000,0.000000
3.0500,8977,240,0,0,0.001978,0.009265,0.000000,0.000000,1.500000,1.500000,1.387158,1.500000,0.127986,0.369226,1.000000,2.000000,5.866699,-17.072754,0.000000,0.000000
3.0600,8978,240,0,0,0.002057,0.009262,0.000000,0.000000,1.500000,1.500000,1.386918,1.500000,0.134720,0.371727,1.000000,2.000000,5.866699,-17.094727,0.000000,0.000000
3.0700,8979,240,0,0,0.002128,0.009234,0.000000,0.000000,1.500000,1.500000,1.387114,1.500000,0.141454,0.374227,1.000000,2.000000,5.866699,-17.094727,0.000000,0.000000
3.0800,8980,240,0,0,0.002519,0.009431,0.000000,0.000000,1.500000,1.500000,1.388054,1.500000,0.148188,0.376727,1.000000,2.000000,5.844727,-17.094727,0.000000,0.000000
3.0900,8981,240,0,0,0.002287,0.009243,0.000000,0.000000,1.500000,1.500000,1.387955,1.500000,0.154922,0.379227,1.000000,2.000000,5.844727,-17.116699,0.000000,0.000000
3.1000,8982,240,0,0,0.002307,0.009481,0.000000,0.000000,1.500000,1.500000,1.388204,1.500000,0.161656,0.381727,1.000000,2.000000,5.844727,-17.116699,0.000000,0.000000
3.1100,8983,240,0,0,0.002290,0.010115,0.000000,0.000000,1.500000,1.500000,1.387919,1.500000,0.168390,0.384227,1.000000,2.000000,5.822754,-17.116699,0.000000,0.000000
3.1200,8984,240,0,0,0.002181,0.010258,0.000000,0.000000,1.500000,1.500000,1.388257,1.500000,0.175124,0.386727,1.000000,2.000000,5.822754,-17.138672,0.000000,0.000000
3.1300,8985,240,0,0,0.002067,0.009734,0.000000,0.000000,1.500000,1.500000,1.387510,1.500000,0.181858,0.389227,1.000000,2.000000,5.822754,-17.138672,0.000000,0.000000
3.1400,8987,240,0,0,0.001978,0.009807,0.000000,0.000000,1.500000,1.500000,1.387080,1.500000,0.195326,0.394228,1.000000,2.000000,5.800781,-17.160645,0.000000,0.000000
3.1500,8988,240,0,0,0.001726,0.009532,0.000000,0.000000,1.500000,1.500000,1.388143,1.500000,0.202060,0.396728,1.000000,2.000000,5.800781,-17.160645,0.000000,0.000000
3.1600,8989,240,0,0,0.001820,0.009340,0.000000,0.000000,1.500000,1.500000,1.387982,1.500000,0.208794,0.399228,1.000000,2.000000,5.800781,-17.160645,0.000000,0.000000
3.1700,8990,240,0,0,0.001801,0.008709,0.000000,0.000000,1.500000,1.500000,1.388197,1.500000,0.215528,0.401728,1.000000,2.000000,5.800781,-17.160645,0.000000,0.000000
3.1800,8991,240,0,0,0.001692,0.008573,0.000000,0.000000,1.500000,1.500000,1.387756,1.500000,0.222262,0.404228,1.000000,2.000000,5.778809,-17.160645,0.000000,0.000000
3.1900,8992,240,0,0,0.001577,0.008788,0.000000,0.000000,1.500000,1.500000,1.388061,1.500000,0.228996,0.406728,1.000000,2.000000,5.778809,-17.182617,0.000000,0.000000
3.2000,8993,240,0,0,0.001536,0.008708,0.000000,0.000000,1.500000,1.500000,1.389295,1.500000,0.235730,0.409228,1.000000,2.000000,5.778809,-17.182617,0.000000,0.000000
3.2100,8994,240,0,0,0.001619,0.008800,0.000000,0.000000,1.500000,1.500000,1.389150,1.500000,0.242464,0.411728,1.000000,2.000000,5.778809,-17.182617,0.000000,0.000000
3.2200,8995,240,0,0,0.001798,0.009335,0.000000,0.000000,1.500000,1.500000,1.389114,1.500000,0.249198,0.414228,1.000000,2.000000,5.756836,-17.204590,0.000000,0.000000
3.2300,8996,240,0,0,0.001588,0.010033,0.000000,0.000000,1.500000,1.500000,1.388582,1.500000,0.255932,0.416729,1.000000,2.000000,5.756836,-17.204590,0.000000,0.000000
3.2400,8997,240,0,0,0.001501,0.009810,0.000000,0.000000,1.500000,1.500000,1.386965,1.500000,0.262666,0.419229,1.000000,2.000000,5.756836,-17.226562,0.000000,0.000000
3.2500,8998,240,0,0,0.001358,0.009742,0.000000,0.000000,1.500000,1.500000,1.387020,1.500000,0.269400,0.421729,1.000000,2.000000,5.734863,-17.226562,0.000000,0.000000
3.2600,8999,240,0,0,0.001150,0.009117,0.000000,0.000000,1.500000,1.500000,1.385284,1.500000,0.276134,0.424229,1.000000,2.000000,5.734863,-17.226562,0.000000,0.000000
3.2700,9000,240,0,0,0.001025,0.009048,0.000000,0.000000,1.500000,1.500000,1.384795,1.500000,0.282868,0.426729,1.000000,2.000000,5.734863,-17.226562,0.000000,0.000000
3.2800,9001,240,0,0,0.001140,0.009421,0.000000,0.000000,1.500000,1.500000,1.384558,1.500000,0.289602,0.429229,1.000000,2.000000,5.734863,-17.248535,0.000000,0.000000
3.2900,9002,240,0,0,0.001179,0.009271,0.000000,0.000000,1.500000,1.500000,1.384820,1.500000,0.296337,0.431729,1.000000,2.000000,5.734863,-17.248535,0.000000,0.000000
3.3000,9003,240,0,0,0.001379,0.009901,0.000000,0.000000,1.500000,1.500000,1.384363,1.500000,0.303071,0.434229,1.000000,2.000000,5.734863,-17.248535,0.000000,0.000000
3.3100,9004,240,0,0,0.001424,0.010164,0.000000,0.000000,1.500000,1.500000,1.384382,1.500000,0.309805,0.436730,1.000000,2.000000,5.734863,-17.248535,0.000000,0.000000
3.3200,9005,240,0,0,0.001346,0.010235,0.000000,0.000000,1.500000,1.500000,1.383889,1.500000,0.316539,0.439230,1.000000,2.000000,5.712891,-17.248535,0.000000,0.000000
3.3300,9006,240,0,0,0.001353,0.010197,0.000000,0.000000,1.500000,1.500000,1.383573,1.500000,0.323273,0.441730,1.000000,2.000000,5.712891,-17.248535,0.000000,0.000000
3.3400,9007,240,0,0,0.001563,0.009591,0.000000,0.000000,1.500000,1.500000,1.383344,1.500000,0.330007,0.444230,1.000000,2.000000,5.712891,-17.248535,0.000000,0.000000
3.3500,9008,240,0,0,0.001432,0.009826,0.000000,0.000000,1.500000,1.500000,1.383736,1.500000,0.336741,0.446730,1.000000,2.000000,5.712891,-17.248535,0.000000,0.000000
3.3600,9009,240,0,0,0.001314,0.009821,0.000000,0.000000,1.500000,1.500000,1.383505,1.500000,0.343476,0.449230,1.000000,2.000000,5.712891,-17.248535,0.000000,0.000000
3.3700,9010,240,0,0,0.001330,0.009655,0.000000,0.000000,1.500000,1.500000,1.382574,1.500000,0.350210,0.451730,1.000000,2.000000,5.712891,-17.248535,0.000000,0.000000
3.3800,9011,240,0,0,0.001374,0.009567,0.000000,0.000000,1.500000,1.500000,1.382941,1.500000,0.356944,0.454230,1.000000,2.000000,5.712891,-17.248535,0.000000,0.000000
3.3900,9012,240,0,0,0.001325,0.009058,0.000000,0.000000,1.500000,1.500000,1.383014,1.500000,0.363678,0.456730,1.000000,2.000000,5.712891,-17.248535,0.000000,0.000000
3.4000,9013,240,0,0,0.001141,0.008933,0.000000,0.000000,1.500000,1.500000,1.382502,1.500000,0.370412,0.459231,1.000000,2.000000,5.734863,-17.248535,0.000000,0.000000
3.4100,9014,240,0,0,0.001193,0.008924,0.000000,0.000000,1.500000,1.500000,1.383430,1.500000,0.377146,0.461731,1.000000,2.000000,5.734863,-17.248535,0.000000,0.000000
3.4200,9015,240,0,0,0.001270,0.008874,0.000000,0.000000,1.500000,1.500000,1.383839,1.500000,0.383880,0.464231,1.000000,2.000000,5.734863,-17.248535,0.000000,0.000000
3.4300,9016,240,0,0,0.001390,0.009320,0.000000,0.000000,1.500000,1.500000,1.384273,1.500000,0.390614,0.466731,1.000000,2.000000,5.734863,-17.226562,0.000000,0.000000
3.4400,9017,240,0,0,0.001432,0.009732,0.000000,0.000000,1.500000,1.500000,1.383753,1.500000,0.397349,0.469231,1.000000,2.000000,5.734863,-17.226562,0.000000,0.000000
3.4500,9018,240,0,0,0.001311,0.009533,0.000000,0.000000,1.500000,1.500000,1.384787,1.500000,0.404083,0.471731,1.000000,2.000000,5.734863,-17.226562,0.000000,0.000000
3.4600,9019,240,0,0,0.001472,0.009525,0.000000,0.000000,1.500000,1.500000,1.385133,1.500000,0.410817,0.474231,1.000000,2.000000,5.734863,-17.226562,0.000000,0.000000
3.4700,9020,240,0,0,0.001523,0.009882,0.000000,0.000000,1.500000,1.500000,1.384704,1.500000,0.417551,0.476731,1.000000,2.000000,5.756836,-17.226562,0.000000,0.000000
3.4800,9021,240,0,0,0.001669,0.010246,0.000000,0.000000,1.500000,1.500000,1.385193,1.500000,0.424285,0.479232,1.000000,2.000000,5.734863,-17.226562,0.000000,0.000000
3.4900,9022,240,0,0,0.001571,0.010510,0.000000,0.000000,1.500000,1.500000,1.385140,1.500000,0.431019,0.481732,1.000000,2.000000,5.734863,-17.226562,0.000000,0.000000
3.5000,9023,240,0,0,0.001491,0.010243,0.000000,0.000000,1.500000,1.500000,1.384877,1.500000,0.437753,0.484232,1.000000,2.000000,5.734863,-17.226562,0.000000,0.000000
3.5100,9024,240,0,0,0.001381,0.009766,0.000000,0.000000,1.500000,1.500000,1.384585,1.500000,0.444488,0.486732,1.000000,2.000000,5.734863,-17.226562,0.000000,0.000000
3.5200,9025,240,0,0,0.001465,0.009765,0.000000,0.000000,1.500000,1.500000,1.384683,1.500000,0.451222,0.489232,1.000000,2.000000,5.734863,-17.226562,0.000000,0.000000
3.5300,9026,240,0,0,0.001444,0.010533,0.000000,0.000000,1.500000,1.500000,1.384440,1.500000,0.457956,0.491732,1.000000,2.000000,5.712891,-17.248535,0.000000,0.000000
3.5400,9027,240,0,0,0.001633,0.010727,0.000000,0.000000,1.500000,1.500000,1.384335,1.500000,0.464690,0.494232,1.000000,2.000000,5.712891,-17.248535,0.000000,0.000000
3.5500,9028,240,0,0,0.001472,0.010837,0.000000,0.000000,1.500000,1.500000,1.384754,1.500000,0.471424,0.496732,1.000000,2.000000,5.712891,-17.248535,0.000000,0.000000
3.5600,9029,240,0,0,0.001576,0.011180,0.000000,0.000000,1.500000,1.500000,1.385456,1.500000,0.478158,0.499232,1.000000,2.000000,5.712891,-17.248535,0.000000,0.000000
3.5700,9030,240,0,0,0.001593,0.011293,0.000000,0.000000,1.500000,1.500000,1.386126,1.500000,0.484892,0.501732,1.000000,2.000000,5.712891,-17.248535,0.000000,0.000000
3.5800,9031,240,0,0,0.001787,0.011395,0.000000,0.000000,1.500000,1.500000,1.386844,1.500000,0.491626,0.504232,1.000000,2.000000,5.712891,-17.248535,0.000000,0.000000
3.5900,9032,240,0,0,0.001700,0.011154,0.000000,0.000000,1.500000,1.500000,1.386816,1.500000,0.498361,0.506732,1.000000,2.000000,5.712891,-17.226562,0.000000,0.000000
3.6000,9033,240,0,0,0.001455,0.011139,0.000000,0.000000,1.500000,1.500000,1.387298,1.500000,0.505095,0.509232,1.000000,2.000000,5.734863,-17.226562,0.000000,0.000000
3.6100,9034,240,0,0,0.001447,0.010529,0.000000,0.000000,1.500000,1.500000,1.387210,1.500000,0.511829,0.511732,1.000000,2.000000,5.734863,-17.226562,0.000000,0.000000
3.6200,9035,240,0,0,0.001479,0.010622,0.000000,0.000000,1.500000,1.500000,1.387691,1.500000,0.518563,0.514232,1.000000,2.000000,5.734863,-17.226562,0.000000,0.000000
3.6300,9037,240,0,0,0.001557,0.009936,0.000000,0.000000,1.500000,1.500000,1.387528,1.500000,0.532031,0.519231,1.000000,2.000000,5.756836,-17.204590,0.000000,0.000000
3.6400,9038,240,0,0,0.001507,0.009862,0.000000,0.000000,1.500000,1.500000,1.388276,1.500000,0.538765,0.521731,1.000000,2.000000,5.756836,-17.204590,0.000000,0.000000
3.6500,9039,240,0,0,0.001435,0.009798,0.000000,0.000000,1.500000,1.500000,1.388321,1.500000,0.545500,0.524231,1.000000,2.000000,5.756836,-17.182617,0.000000,0.000000
3.6600,9040,240,0,0,0.001500,0.009817,0.000000,0.000000,1.500000,1.500000,1.388323,1.500000,0.552234,0.526731,1.000000,2.000000,5.778809,-17.182617,0.000000,0.000000
3.6700,9041,240,0,0,0.001427,0.009737,0.000000,0.000000,1.500000,1.500000,1.388812,1.500000,0.558968,0.529230,1.000000,2.000000,5.778809,-17.182617,0.000000,0.000000
3.6800,9042,240,0,0,0.001457,0.009505,0.000000,0.000000,1.500000,1.500000,1.389215,1.500000,0.565702,0.531730,1.000000,2.000000,5.778809,-17.182617,0.000000,0.000000
3.6900,9043,240,0,0,0.001229,0.009325,0.000000,0.000000,1.500000,1.500000,1.389018,1.500000,0.572436,0.534230,1.000000,2.000000,5.778809,-17.160645,0.000000,0.000000
3.7000,9044,240,0,0,0.001210,0.009148,0.000000,0.000000,1.500000,1.500000,1.388056,1.500000,0.579170,0.536730,1.000000,2.000000,5.800781,-17.160645,0.000000,0.000000
3.7100,9045,240,0,0,0.001116,0.009303,0.000000,0.000000,1.500000,1.500000,1.388822,1.500000,0.585904,0.539230,1.000000,2.000000,5.800781,-17.160645,0.000000,0.000000
3.7200,9046,240,0,0,0.001023,0.009588,0.000000,0.000000,1.500000,1.500000,1.388949,1.500000,0.592638,0.541730,1.000000,2.000000,5.800781,-17.160645,0.000000,0.000000
3.7300,9047,240,0,0,0.001067,0.009403,0.000000,0.000000,1.500000,1.500000,1.390010,1.500000,0.599373,0.544229,1.000000,2.000000,5.800781,-17.160645,0.000000,0.000000
3.7400,9048,240,0,0,0.000982,0.009550,0.000000,0.000000,1.500000,1.500000,1.389321,1.500000,0.606107,0.546729,1.000000,2.000000,5.800781,-17.160645,0.000000,0.000000
3.7500,9049,240,0,0,0.001145,0.009561,0.000000,0.000000,1.500000,1.500000,1.389704,1.500000,0.612841,0.549229,1.000000,2.000000,5.800781,-17.138672,0.000000,0.000000
3.7600,9050,240,0,0,0.001259,0.009556,0.000000,0.000000,1.500000,1.500000,1.390687,1.500000,0.619575,0.551729,1.000000,2.000000,5.800781,-17.138672,0.000000,0.000000
3.7700,9051,240,0,0,0.001378,0.009779,0.000000,0.000000,1.500000,1.500000,1.390512,1.500000,0.626309,0.554229,1.000000,2.000000,5.822754,-17.138672,0.000000,0.000000
3.7800,9052,240,0,0,0.001188,0.009561,0.000000,0.000000,1.500000,1.500000,1.389929,1.500000,0.633043,0.556728,1.000000,2.000000,5.822754,-17.138672,0.000000,0.000000
3.7900,9053,240,0,0,0.001438,0.009633,0.000000,0.000000,1.500000,1.500000,1.390196,1.500000,0.639777,0.559228,1.000000,2.000000,5.822754,-17.138672,0.000000,0.000000
3.8000,9054,240,0,0,0.001370,0.009308,0.000000,0.000000,1.500000,1.500000,1.390498,1.500000,0.646511,0.561728,1.000000,2.000000,5.822754,-17.138672,0.000000,0.000000
3.8100,9055,240,0,0,0.001400,0.009317,0.000000,0.000000,1.500000,1.500000,1.391102,1.500000,0.653246,0.564228,1.000000,2.000000,5.822754,-17.116699,0.000000,0.000000
3.8200,9056,240,0,0,0.001256,0.008922,0.000000,0.000000,1.500000,1.500000,1.391123,1.500000,0.659980,0.566728,1.000000,2.000000,5.822754,-17.116699,0.000000,0.000000
3.8300,9057,240,0,0,0.001250,0.008890,0.000000,0.000000,1.500000,1.500000,1.391857,1.500000,0.666714,0.569228,1.000000,2.000000,5.822754,-17.116699,0.000000,0.000000
3.8400,9058,240,0,0,0.001344,0.008659,0.000000,0.000000,1.500000,1.500000,1.392712,1.500000,0.673448,0.571727,1.000000,2.000000,5.822754,-17.138672,0.000000,0.000000
3.8500,9059,240,0,0,0.001427,0.008551,0.000000,0.000000,1.500000,1.500000,1.392484,1.500000,0.680182,0.574227,1.000000,2.000000,5.822754,-17.138672,0.000000,0.000000
3.8600,9060,240,0,0,0.001339,0.008970,0.000000,0.000000,1.500000,1.500000,1.393621,1.500000,0.686916,0.576727,1.000000,2.000000,5.822754,-17.138672,0.000000,0.000000
3.8700,9061,240,0,0,0.001470,0.009406,0.000000,0.000000,1.500000,1.500000,1.394537,1.500000,0.693650,0.579227,1.000000,2.000000,5.822754,-17.138672,0.000000,0.000000
3.8800,9062,240,0,0,0.001505,0.009389,0.000000,0.000000,1.500000,1.500000,1.394996,1.500000,0.700385,0.581727,1.000000,2.000000,5.822754,-17.138672,0.000000,0.000000
3.8900,9063,240,0,0,0.001544,0.009176,0.000000,0.000000,1.500000,1.500000,1.394454,1.500000,0.707119,0.584226,1.000000,2.000000,5.800781,-17.138672,0.000000,0.000000
3.9000,9064,240,0,0,0.001591,0.009282,0.000000,0.000000,1.500000,1.500000,1.394681,1.500000,0.713853,0.586726,1.000000,2.000000,5.800781,-17.138672,0.000000,0.000000
3.9100,9065,240,0,0,0.002039,0.009451,0.000000,0.000000,1.500000,1.500000,1.394726,1.500000,0.720587,0.589226,1.000000,2.000000,5.800781,-17.138672,0.000000,0.000000
3.9200,9066,240,0,0,0.002369,0.009851,0.000000,0.000000,1.500000,1.500000,1.394778,1.500000,0.727321,0.591726,1.000000,2.000000,5.800781,-17.138672,0.000000,0.000000
3.9300,9067,240,0,0,0.001926,0.009537,0.000000,0.000000,1.500000,1.500000,1.395087,1.500000,0.734055,0.594226,1.000000,2.000000,5.800781,-17.138672,0.000000,0.000000
3.9400,9068,240,0,0,0.001762,0.009726,0.000000,0.000000,1.500000,1.500000,1.396276,1.500000,0.740789,0.596726,1.000000,2.000000,5.800781,-17.138672,0.000000,0.000000
3.9500,9069,240,0,0,0.001481,0.009286,0.000000,0.000000,1.500000,1.500000,1.395178,1.500000,0.747523,0.599225,1.000000,2.000000,5.800781,-17.138672,0.000000,0.000000
3.9600,9070,240,0,0,0.001936,0.009757,0.000000,0.000000,1.500000,1.500000,1.395788,1.500000,0.754258,0.601725,1.000000,2.000000,5.800781,-17.138672,0.000000,0.000000
3.9700,9071,240,0,0,0.001971,0.009870,0.000000,0.000000,1.500000,1.500000,1.395229,1.500000,0.760992,0.604225,1.000000,2.000000,5.800781,-17.138672,0.000000,0.000000
3.9800,9072,240,0,0,0.001849,0.009430,0.000000,0.000000,1.500000,1.500000,1.394675,1.500000,0.767726,0.606725,1.000000,2.000000,5.800781,-17.138672,0.000000,0.000000
3.9900,9073,240,0,0,0.001866,0.009605,0.000000,0.000000,1.500000,1.500000,1.395497,1.500000,0.774460,0.609225,1.000000,2.000000,5.800781,-17.138672,0.000000,0.000000
4.0000,9074,240,0,0,0.001923,0.009607,0.000000,0.000000,1.500000,1.500000,1.395637,1.500000,0.781194,0.611724,1.000000,2.000000,5.800781,-17.138672,0.000000,0.000000
4.0100,9075,240,0,0,0.002165,0.009684,0.000000,0.000000,1.500000,1.500000,1.395396,1.500000,0.787928,0.614224,1.000000,2.000000,5.800781,-17.138672,0.000000,0.000000
4.0200,9076,240,0,0,0.002529,0.010087,0.000000,0.000000,1.500000,1.500000,1.395422,1.500000,0.794662,0.616724,1.000000,2.000000,5.800781,-17.138672,0.000000,0.000000
4.0300,9077,240,0,0,0.002352,0.010107,0.000000,0.000000,1.500000,1.500000,1.395593,1.500000,0.801397,0.619224,1.000000,2.000000,5.800781,-17.138672,0.000000,0.000000
4.0400,9078,240,0,0,0.002049,0.010357,0.000000,0.000000,1.500000,1.500000,1.397354,1.500000,0.808131,0.621724,1.000000,2.000000,5.800781,-17.138672,0.000000,0.000000
4.0500,9079,240,0,0,0.001997,0.010066,0.000000,0.000000,1.500000,1.500000,1.396290,1.500000,0.814865,0.624224,1.000000,2.000000,5.822754,-17.138672,0.000000,0.000000
4.0600,9080,240,0,0,0.001983,0.009922,0.000000,0.000000,1.500000,1.500000,1.396614,1.500000,0.821599,0.626723,1.000000,2.000000,5.822754,-17.138672,0.000000,0.000000
4.0700,9081,240,0,0,0.002368,0.010239,0.000000,0.000000,1.500000,1.500000,1.396843,1.500000,0.828333,0.629223,1.000000,2.000000,5.822754,-17.116699,0.000000,0.000000
4.0800,9082,240,0,0,0.002141,0.010218,0.000000,0.000000,1.500000,1.500000,1.397191,1.500000,0.835067,0.631723,1.000000,2.000000,5.822754,-17.116699,0.000000,0.000000
4.0900,9083,240,0,0,0.002077,0.010327,0.000000,0.000000,1.500000,1.500000,1.396600,1.500000,0.841801,0.634223,1.000000,2.000000,5.822754,-17.116699,0.000000,0.000000
4.1000,9084,240,0,0,0.002078,0.010115,0.000000,0.000000,1.500000,1.500000,1.395913,1.500000,0.848535,0.636723,1.000000,2.000000,5.844727,-17.116699,0.000000,0.000000
4.1100,9085,240,0,0,0.002036,0.009949,0.000000,0.000000,1.500000,1.500000,1.396005,1.500000,0.855270,0.639222,1.000000,2.000000,5.844727,-17.116699,0.000000,0.000000
4.1200,9087,240,0,0,0.002190,0.009359,0.000000,0.000000,1.500000,1.500000,1.395943,1.500000,0.868738,0.644222,1.000000,2.000000,5.844727,-17.094727,0.000000,0.000000
4.1300,9088,240,0,0,0.002344,0.009286,0.000000,0.000000,1.500000,1.500000,1.395032,1.500000,0.875472,0.646722,1.000000,2.000000,5.844727,-17.094727,0.000000,0.000000
4.1400,9089,240,0,0,0.001970,0.009147,0.000000,0.000000,1.500000,1.500000,1.396170,1.500000,0.882206,0.649222,1.000000,2.000000,5.844727,-17.094727,0.000000,0.000000
4.1500,9090,240,0,0,0.001748,0.008921,0.000000,0.000000,1.500000,1.500000,1.395734,1.500000,0.888940,0.651722,1.000000,2.000000,5.844727,-17.094727,0.000000,0.000000
4.1600,9091,240,0,0,0.001701,0.009114,0.000000,0.000000,1.500000,1.500000,1.396387,1.500000,0.895674,0.654221,1.000000,2.000000,5.866699,-17.094727,0.000000,0.000000
4.1700,9092,240,0,0,0.001555,0.008802,0.000000,0.000000,1.500000,1.500000,1.395569,1.500000,0.902409,0.656721,1.000000,2.000000,5.866699,-17.094727,0.000000,0.000000
4.1800,9093,240,0,0,0.001490,0.008539,0.000000,0.000000,1.500000,1.500000,1.395954,1.500000,0.909143,0.659221,1.000000,2.000000,5.866699,-17.094727,0.000000,0.000000
4.1900,9094,240,0,0,0.001418,0.008557,0.000000,0.000000,1.500000,1.500000,1.395335,1.500000,0.915877,0.661721,1.000000,2.000000,5.866699,-17.094727,0.000000,0.000000
4.2000,9095,240,0,0,0.001309,0.008865,0.000000,0.000000,1.500000,1.500000,1.396651,1.500000,0.922611,0.664221,1.000000,2.000000,5.866699,-17.094727,0.000000,0.000000
4.2100,9096,240,0,0,0.001552,0.008831,0.000000,0.000000,1.500000,1.500000,1.396905,1.500000,0.929345,0.666720,1.000000,2.000000,5.866699,-17.094727,0.000000,0.000000
4.2200,9097,240,0,0,0.001434,0.008908,0.000000,0.000000,1.500000,1.500000,1.397912,1.500000,0.936079,0.669220,1.000000,2.000000,5.866699,-17.094727,0.000000,0.000000
4.2300,9098,240,0,0,0.001482,0.009029,0.000000,0.000000,1.500000,1.500000,1.397313,1.500000,0.942813,0.671720,1.000000,2.000000,5.866699,-17.094727,0.000000,0.000000
4.2400,9099,240,0,0,0.001502,0.009304,0.000000,0.000000,1.500000,1.500000,1.397523,1.500000,0.949547,0.674220,1.000000,2.000000,5.866699,-17.094727,0.000000,0.000000
4.2500,9100,240,0,0,0.001428,0.009433,0.000000,0.000000,1.500000,1.500000,1.397996,1.500000,0.956282,0.676720,1.000000,2.000000,5.866699,-17.094727,0.000000,0.000000
4.2600,9101,240,0,0,0.001446,0.009331,0.000000,0.000000,1.500000,1.500000,1.397432,1.500000,0.963016,0.679220,1.000000,2.000000,5.866699,-17.094727,0.000000,0.000000
4.2700,9102,240,0,0,0.001375,0.009312,0.000000,0.000000,1.500000,1.500000,1.397056,1.500000,0.969750,0.681719,1.000000,2.000000,5.866699,-17.094727,0.000000,0.000000
4.2800,9103,240,0,0,0.001286,0.009871,0.000000,0.000000,1.500000,1.500000,1.397029,1.500000,0.976484,0.684219,1.000000,2.000000,5.866699,-17.094727,0.000000,0.000000
4.2900,9104,240,0,0,0.001261,0.010129,0.000000,0.000000,1.500000,1.500000,1.397262,1.500000,0.983218,0.686719,1.000000,2.000000,5.866699,-17.094727,0.000000,0.000000
4.3000,9105,240,0,0,0.001205,0.009782,0.000000,0.000000,1.500000,1.500000,1.397915,1.500000,0.989952,0.689219,1.000000,2.000000,5.866699,-17.094727,0.000000,0.000000
4.3100,9106,240,0,0,0.001161,0.009558,0.000000,0.000000,1.500000,1.500000,1.397820,1.500000,0.996686,0.691719,1.000000,2.000000,5.866699,-17.094727,0.000000,0.000000
4.3200,9107,240,0,0,0.001218,0.009507,0.000000,0.000000,1.500000,1.500000,1.398060,1.500000,0.003420,0.694218,1.000000,2.000000,5.866699,-17.094727,0.000000,0.000000
4.3300,9108,240,0,0,0.001324,0.009330,0.000000,0.000000,1.500000,1.500000,1.397235,1.500000,0.010154,0.696718,1.000000,2.000000,5.866699,-17.094727,0.000000,0.000000
4.3400,9109,240,0,0,0.001219,0.009408,0.000000,0.000000,1.500000,1.500000,1.397834,1.500000,0.016888,0.699218,1.000000,2.000000,5.844727,-17.094727,0.000000,0.000000
4.3500,9110,240,0,0,0.001356,0.009499,0.000000,0.000000,1.500000,1.500000,1.397292,1.500000,0.023622,0.701718,1.000000,2.000000,5.844727,-17.094727,0.000000,0.000000
4.3600,9111,240,0,0,0.001458,0.009932,0.000000,0.000000,1.500000,1.500000,1.397905,1.500000,0.030356,0.704218,1.000000,2.000000,5.844727,-17.094727,0.000000,0.000000
4.3700,9112,240,0,0,0.001353,0.009689,0.000000,0.000000,1.500000,1.500000,1.397870,1.500000,0.037090,0.706718,1.000000,2.000000,5.844727,-17.094727,0.000000,0.000000
4.3800,9113,240,0,0,0.001501,0.010065,0.000000,0.000000,1.500000,1.500000,1.397727,1.500000,0.043824,0.709217,1.000000,2.000000,5.844727,-17.094727,0.000000,0.000000
4.3900,9114,240,0,0,0.001750,0.010626,0.000000,0.000000,1.500000,1.500000,1.398490,1.500000,0.050558,0.711717,1.000000,2.000000,5.844727,-17.116699,0.000000,0.000000
4.4000,9115,240,0,0,0.001526,0.010197,0.000000,0.000000,1.500000,1.500000,1.399088,1.500000,0.057293,0.714217,1.000000,2.000000,5.844727,-17.116699,0.000000,0.000000
4.4100,9116,240,0,0,0.001382,0.009969,0.000000,0.000000,1.500000,1.500000,1.398553,1.500000,0.064027,0.716717,1.000000,2.000000,5.844727,-17.116699,0.000000,0.000000
4.4200,9117,240,0,0,0.001448,0.009896,0.000000,0.000000,1.500000,1.500000,1.398239,1.500000,0.070760,0.719217,1.000000,2.000000,5.844727,-17.116699,0.000000,0.000000
4.4300,9118,240,0,0,0.001395,0.009394,0.000000,0.000000,1.500000,1.500000,1.399397,1.500000,0.077494,0.721716,1.000000,2.000000,5.844727,-17.116699,0.000000,0.000000
4.4400,9119,240,0,0,0.001914,0.009490,0.000000,0.000000,1.500000,1.500000,1.399291,1.500000,0.084228,0.724216,1.000000,2.000000,5.822754,-17.116699,0.000000,0.000000
4.4500,9120,240,0,0,0.001815,0.009569,0.000000,0.000000,1.500000,1.500000,1.399247,1.500000,0.090962,0.726716,1.000000,2.000000,5.822754,-17.116699,0.000000,0.000000
4.4600,9121,240,0,0,0.001841,0.009323,0.000000,0.000000,1.500000,1.500000,1.398535,1.500000,0.097696,0.729216,1.000000,2.000000,5.822754,-17.116699,0.000000,0.000000
4.4700,9122,240,0,0,0.001661,0.009131,0.000000,0.000000,1.500000,1.500000,1.398885,1.500000,0.104430,0.731716,1.000000,2.000000,5.822754,-17.116699,0.000000,0.000000
4.4800,9123,240,0,0,0.001652,0.008788,0.000000,0.000000,1.500000,1.500000,1.399054,1.500000,0.111164,0.734216,1.000000,2.000000,5.822754,-17.116699,0.000000,0.000000
4.4900,9124,240,0,0,0.001515,0.008519,0.000000,0.000000,1.500000,1.500000,1.400494,1.500000,0.117898,0.736715,1.000000,2.000000,5.822754,-17.116699,0.000000,0.000000
4.5000,9125,240,0,0,0.001572,0.009038,0.000000,0.000000,1.500000,1.500000,1.400046,1.500000,0.124632,0.739215,1.000000,2.000000,5.822754,-17.138672,0.000000,0.000000
4.5100,9126,240,0,0,0.001416,0.009533,0.000000,0.000000,1.500000,1.500000,1.400499,1.500000,0.131366,0.741715,1.000000,2.000000,5.800781,-17.138672,0.000000,0.000000
4.5200,9127,240,0,0,0.001478,0.009918,0.000000,0.000000,1.500000,1.500000,1.400387,1.500000,0.138100,0.744215,1.000000,2.000000,5.800781,-17.138672,0.000000,0.000000
4.5300,9128,240,0,0,0.001719,0.009757,0.000000,0.000000,1.500000,1.500000,1.401530,1.500000,0.144834,0.746715,1.000000,2.000000,5.800781,-17.138672,0.000000,0.000000
4.5400,9129,240,0,0,0.002014,0.009774,0.000000,0.000000,1.500000,1.500000,1.401185,1.500000,0.151568,0.749214,1.000000,2.000000,5.800781,-17.138672,0.000000,0.000000
4.5500,9130,240,0,0,0.001755,0.009390,0.000000,0.000000,1.500000,1.500000,1.401835,1.500000,0.158302,0.751714,1.000000,2.000000,5.800781,-17.160645,0.000000,0.000000
4.5600,9131,240,0,0,0.001727,0.009243,0.000000,0.000000,1.500000,1.500000,1.400628,1.500000,0.165036,0.754214,1.000000,2.000000,5.800781,-17.160645,0.000000,0.000000
4.5700,9132,240,0,0,0.001765,0.009666,0.000000,0.000000,1.500000,1.500000,1.401087,1.500000,0.171770,0.756714,1.000000,2.000000,5.800781,-17.160645,0.000000,0.000000
4.5800,9133,240,0,0,0.002001,0.009661,0.000000,0.000000,1.500000,1.500000,1.401126,1.500000,0.178504,0.759214,1.000000,2.000000,5.800781,-17.160645,0.000000,0.000000
4.5900,9134,240,0,0,0.001962,0.009420,0.000000,0.000000,1.500000,1.500000,1.401780,1.500000,0.185238,0.761714,1.000000,2.000000,5.800781,-17.160645,0.000000,0.000000
4.6000,9135,240,0,0,0.002702,0.009628,0.000000,0.000000,1.500000,1.500000,1.401777,1.500000,0.191972,0.764213,1.000000,2.000000,5.778809,-17.160645,0.000000,0.000000
4.6100,9137,240,0,0,0.002107,0.009179,0.000000,0.000000,1.500000,1.500000,1.401773,1.500000,0.205440,0.769213,1.000000,2.000000,5.778809,-17.182617,0.000000,0.000000
4.6200,9138,240,0,0,0.001954,0.009375,0.000000,0.000000,1.500000,1.500000,1.401658,1.500000,0.212174,0.771713,1.000000,2.000000,5.778809,-17.182617,0.000000,0.000000
4.6300,9139,240,0,0,0.001659,0.009171,0.000000,0.000000,1.500000,1.500000,1.400195,1.500000,0.218908,0.774213,1.000000,2.000000,5.778809,-17.182617,0.000000,0.000000
4.6400,9140,240,0,0,0.001741,0.009251,0.000000,0.000000,1.500000,1.500000,1.400275,1.500000,0.225642,0.776712,1.000000,2.000000,5.778809,-17.182617,0.000000,0.000000
4.6500,9141,240,0,0,0.001684,0.010014,0.000000,0.000000,1.500000,1.500000,1.401355,1.500000,0.232376,0.779212,1.000000,2.000000,5.756836,-17.204590,0.000000,0.000000
4.6600,9142,240,0,0,0.001672,0.010152,0.000000,0.000000,1.500000,1.500000,1.400380,1.500000,0.239110,0.781712,1.000000,2.000000,5.756836,-17.204590,0.000000,0.000000
4.6700,9143,240,0,0,0.001548,0.009667,0.000000,0.000000,1.500000,1.500000,1.399754,1.500000,0.245844,0.784212,1.000000,2.000000,5.756836,-17.204590,0.000000,0.000000
4.6800,9144,240,0,0,0.001629,0.009449,0.000000,0.000000,1.500000,1.500000,1.399376,1.500000,0.252578,0.786712,1.000000,2.000000,5.756836,-17.204590,0.000000,0.000000
4.6900,9145,240,0,0,0.001895,0.010274,0.000000,0.000000,1.500000,1.500000,1.400396,1.500000,0.259312,0.789212,1.000000,2.000000,5.756836,-17.204590,0.000000,0.000000
4.7000,9146,240,0,0,0.001692,0.009792,0.000000,0.000000,1.500000,1.500000,1.400489,1.500000,0.266046,0.791711,1.000000,2.000000,5.756836,-17.226562,0.000000,0.000000
4.7100,9147,240,0,0,0.001498,0.009754,0.000000,0.000000,1.500000,1.500000,1.400308,1.500000,0.272781,0.794211,1.000000,2.000000,5.756836,-17.226562,0.000000,0.000000
4.7200,9148,240,0,0,0.001361,0.009810,0.000000,0.000000,1.500000,1.500000,1.400179,1.500000,0.279515,0.796711,1.000000,2.000000,5.756836,-17.226562,0.000000,0.000000
4.7300,9149,240,0,0,0.001316,0.009254,0.000000,0.000000,1.500000,1.500000,1.400624,1.500000,0.286249,0.799211,1.000000,2.000000,5.756836,-17.226562,0.000000,0.000000
4.7400,9150,240,0,0,0.001285,0.009676,0.000000,0.000000,1.500000,1.500000,1.401131,1.500000,0.292983,0.801711,1.000000,2.000000,5.756836,-17.226562,0.000000,0.000000
4.7500,9151,240,0,0,0.001389,0.009481,0.000000,0.000000,1.500000,1.500000,1.400641,1.500000,0.299717,0.804210,1.000000,2.000000,5.756836,-17.226562,0.000000,0.000000
4.7600,9152,240,0,0,0.001641,0.009502,0.000000,0.000000,1.500000,1.500000,1.398923,1.500000,0.306451,0.806710,1.000000,2.000000,5.756836,-17.204590,0.000000,0.000000
4.7700,9153,240,0,0,0.001428,0.009454,0.000000,0.000000,1.500000,1.500000,1.400320,1.500000,0.313185,0.809210,1.000000,2.000000,5.756836,-17.204590,0.000000,0.000000
4.7800,9154,240,0,0,0.001351,0.009534,0.000000,0.000000,1.500000,1.500000,1.401422,1.500000,0.319919,0.811710,1.000000,2.000000,5.756836,-17.204590,0.000000,0.000000
4.7900,9155,240,0,0,0.001271,0.009335,0.000000,0.000000,1.500000,1.500000,1.401765,1.500000,0.326654,0.814210,1.000000,2.000000,5.756836,-17.204590,0.000000,0.000000
4.8000,9156,240,0,0,0.001207,0.009667,0.000000,0.000000,1.500000,1.500000,1.401490,1.500000,0.333388,0.816710,1.000000,2.000000,5.756836,-17.204590,0.000000,0.000000
4.8100,9157,240,0,0,0.001229,0.009467,0.000000,0.000000,1.500000,1.500000,1.400248,1.500000,0.340122,0.819209,1.000000,2.000000,5.756836,-17.204590,0.000000,0.000000
4.8200,9158,240,0,0,0.001414,0.009332,0.000000,0.000000,1.500000,1.500000,1.399864,1.500000,0.346856,0.821709,1.000000,2.000000,5.756836,-17.204590,0.000000,0.000000
4.8300,9159,240,0,0,0.001434,0.009462,0.000000,0.000000,1.500000,1.500000,1.400474,1.500000,0.353590,0.824209,1.000000,2.000000,5.756836,-17.204590,0.000000,0.000000
4.8400,9160,240,0,0,0.001550,0.009685,0.000000,0.000000,1.500000,1.500000,1.401119,1.500000,0.360324,0.826709,1.000000,2.000000,5.756836,-17.204590,0.000000,0.000000
4.8500,9161,240,0,0,0.001434,0.009321,0.000000,0.000000,1.500000,1.500000,1.400983,1.500000,0.367058,0.829209,1.000000,2.000000,5.756836,-17.204590,0.000000,0.000000
4.8600,9162,240,0,0,0.001456,0.009732,0.000000,0.000000,1.500000,1.500000,1.400796,1.500000,0.373792,0.831708,1.000000,2.000000,5.756836,-17.204590,0.000000,0.000000
4.8700,9163,240,0,0,0.001659,0.009962,0.000000,0.000000,1.500000,1.500000,1.401282,1.500000,0.380527,0.834208,1.000000,2.000000,5.756836,-17.204590,0.000000,0.000000
4.8800,9164,240,0,0,0.001808,0.010065,0.000000,0.000000,1.500000,1.500000,1.401020,1.500000,0.387261,0.836708,1.000000,2.000000,5.756836,-17.204590,0.000000,0.000000
4.8900,9165,240,0,0,0.001631,0.009822,0.000000,0.000000,1.500000,1.500000,1.399975,1.500000,0.393995,0.839208,1.000000,2.000000,5.756836,-17.204590,0.000000,0.000000
4.9000,9166,240,0,0,0.001479,0.009373,0.000000,0.000000,1.500000,1.500000,1.400998,1.500000,0.400729,0.841708,1.000000,2.000000,5.756836,-17.204590,0.000000,0.000000
4.9100,9167,240,0,0,0.001519,0.009462,0.000000,0.000000,1.500000,1.500000,1.401724,1.500000,0.407463,0.844208,1.000000,2.000000,5.756836,-17.204590,0.000000,0.000000
4.9200,9168,240,0,0,0.001487,0.009974,0.000000,0.000000,1.500000,1.500000,1.402663,1.500000,0.414197,0.846707,1.000000,2.000000,5.778809,-17.204590,0.000000,0.000000
4.9300,9169,240,0,0,0.001314,0.010354,0.000000,0.000000,1.500000,1.500000,1.402476,1.500000,0.420931,0.849207,1.000000,2.000000,5.778809,-17.204590,0.000000,0.000000
4.9400,9170,240,0,0,0.001360,0.010267,0.000000,0.000000,1.500000,1.500000,1.402092,1.500000,0.427666,0.851707,1.000000,2.000000,5.778809,-17.204590,0.000000,0.000000
4.9500,9171,240,0,0,0.001304,0.010309,0.000000,0.000000,1.500000,1.500000,1.402073,1.500000,0.434400,0.854207,1.000000,2.000000,5.778809,-17.204590,0.000000,0.000000
4.9600,9172,240,0,0,0.001413,0.010061,0.000000,0.000000,1.500000,1.500000,1.402602,1.500000,0.441134,0.856707,1.000000,2.000000,5.778809,-17.204590,0.000000,0.000000
4.9700,9173,240,0,0,0.001560,0.009486,0.000000,0.000000,1.500000,1.500000,1.402374,1.500000,0.447868,0.859206,1.000000,2.000000,5.778809,-17.182617,0.000000,0.000000
4.9800,9174,240,0,0,0.001620,0.009965,0.000000,0.000000,1.500000,1.500000,1.402394,1.500000,0.454602,0.861706,1.000000,2.000000,5.800781,-17.182617,0.000000,0.000000
4.9900,9175,240,0,0,0.001597,0.010406,0.000000,0.000000,1.500000,1.500000,1.402917,1.500000,0.461336,0.864206,1.000000,2.000000,5.800781,-17.182617,0.000000,0.000000
5.0000,9176,240,0,0,0.001750,0.010118,0.000000,0.000000,1.500000,1.500000,1.402931,1.500000,0.468070,0.866706,1.000000,2.000000,5.800781,-17.182617,0.000000,0.000000
5.0100,9177,240,0,0,0.001591,0.009853,0.000000,0.000000,1.500000,1.500000,1.403875,1.500000,0.474804,0.869206,1.000000,2.000000,5.800781,-17.160645,0.000000,0.000000
5.0200,9178,240,0,0,0.001380,0.010199,0.000000,0.000000,1.500000,1.500000,1.403429,1.500000,0.481539,0.871706,1.000000,2.000000,5.822754,-17.160645,0.000000,0.000000
5.0300,9179,240,0,0,0.001697,0.009586,0.000000,0.000000,1.500000,1.500000,1.403690,1.500000,0.488273,0.874205,1.000000,2.000000,5.822754,-17.160645,0.000000,0.000000
5.0400,9180,240,0,0,0.001667,0.009206,0.000000,0.000000,1.500000,1.500000,1.403443,1.500000,0.495007,0.876705,1.000000,2.000000,5.822754,-17.160645,0.000000,0.000000
5.0500,9181,240,0,0,0.001600,0.009499,0.000000,0.000000,1.500000,1.500000,1.403158,1.500000,0.501741,0.879205,1.000000,2.000000,5.822754,-17.160645,0.000000,0.000000
5.0600,9182,240,0,0,0.001916,0.010372,0.000000,0.000000,1.500000,1.500000,1.404611,1.500000,0.508475,0.881705,1.000000,2.000000,5.822754,-17.160645,0.000000,0.000000
5.0700,9183,240,0,0,0.002122,0.011188,0.000000,0.000000,1.500000,1.500000,1.404246,1.500000,0.515209,0.884205,1.000000,2.000000,5.822754,-17.160645,0.000000,0.000000
5.0800,9184,240,0,0,0.002066,0.011144,0.000000,0.000000,1.500000,1.500000,1.404305,1.500000,0.521943,0.886705,1.000000,2.000000,5.822754,-17.160645,0.000000,0.000000
5.0900,9185,240,0,0,0.001741,0.010898,0.000000,0.000000,1.500000,1.500000,1.404100,1.500000,0.528678,0.889204,1.000000,2.000000,5.822754,-17.160645,0.000000,0.000000
5.1000,9187,240,0,0,0.001295,0.010856,0.000000,0.000000,1.500000,1.500000,1.403046,1.500000,0.542146,0.894204,1.000000,2.000000,5.822754,-17.182617,0.000000,0.000000
5.1100,9188,240,0,0,0.001310,0.010465,0.000000,0.000000,1.500000,1.500000,1.401853,1.500000,0.548880,0.896704,1.000000,2.000000,5.800781,-17.204590,0.000000,0.000000
5.1200,9189,240,0,0,0.001346,0.010056,0.000000,0.000000,1.500000,1.500000,1.400574,1.500000,0.555614,0.899204,1.000000,2.000000,5.778809,-17.204590,0.000000,0.000000
5.1300,9190,240,0,0,0.001618,0.010046,0.000000,0.000000,1.500000,1.500000,1.399408,1.500000,0.562348,0.901703,1.000000,2.000000,5.778809,-17.226562,0.000000,0.000000
5.1400,9191,240,0,0,0.001568,0.009550,0.000000,0.000000,1.500000,1.500000,1.395541,1.500000,0.569082,0.904203,1.000000,2.000000,5.756836,-17.248535,0.000000,0.000000
5.1500,9192,240,0,0,0.001683,0.009557,0.000000,0.000000,1.500000,1.500000,1.393486,1.500000,0.575816,0.906703,1.000000,2.000000,5.734863,-17.270508,0.000000,0.000000
5.1600,9193,240,0,0,0.001650,0.009375,0.000000,0.000000,1.500000,1.500000,1.391643,1.500000,0.582551,0.909203,1.000000,2.000000,5.712891,-17.292480,0.000000,0.000000
5.1700,9194,240,0,0,0.001703,0.009336,0.000000,0.000000,1.500000,1.500000,1.390978,1.500000,0.589285,0.911703,1.000000,2.000000,5.690918,-17.314453,0.000000,0.000000
5.1800,9195,240,0,0,0.001559,0.009240,0.000000,0.000000,1.500000,1.500000,1.390113,1.500000,0.596019,0.914203,1.000000,2.000000,5.690918,-17.314453,0.000000,0.000000
5.1900,9196,240,0,0,0.001610,0.009084,0.000000,0.000000,1.500000,1.500000,1.388133,1.500000,0.602753,0.916702,1.000000,2.000000,5.690918,-17.314453,0.000000,0.000000
5.2000,9197,240,0,0,0.001522,0.008125,0.000000,0.000000,1.500000,1.500000,1.385684,1.500000,0.609487,0.919202,1.000000,2.000000,5.690918,-17.292480,0.000000,0.000000
5.2100,9198,240,0,0,0.001599,0.007734,0.000000,0.000000,1.500000,1.500000,1.383967,1.500000,0.616221,0.921702,1.000000,2.000000,5.690918,-17.292480,0.000000,0.000000
5.2200,9199,240,0,0,0.001536,0.008334,0.000000,0.000000,1.500000,1.500000,1.383608,1.500000,0.622955,0.924202,1.000000,2.000000,5.712891,-17.248535,0.000000,0.000000
5.2300,9200,240,0,0,0.001397,0.008580,0.000000,0.000000,1.500000,1.500000,1.383956,1.500000,0.629690,0.926702,1.000000,2.000000,5.712891,-17.182617,0.000000,0.000000
5.2400,9201,240,0,0,0.001356,0.008535,0.000000,0.000000,1.500000,1.500000,1.384036,1.500000,0.636424,0.929201,1.000000,2.000000,5.734863,-17.072754,0.000000,0.000000
5.2500,9202,240,0,0,0.001251,0.008181,0.000000,0.000000,1.500000,1.500000,1.384389,1.500000,0.643158,0.931701,1.000000,2.000000,5.756836,-16.918945,0.000000,0.000000
5.2600,9203,240,0,0,0.001236,0.008415,0.000000,0.000000,1.500000,1.500000,1.385564,1.500000,0.649892,0.934201,1.000000,2.000000,5.778809,-16.699219,0.000000,0.000000
5.2700,9204,240,0,0,0.001294,0.008855,0.000000,0.000000,1.500000,1.500000,1.386836,1.500000,0.656626,0.936701,1.000000,2.000000,5.756836,-16.523438,0.000000,0.000000
5.2800,9205,240,0,0,0.001496,0.008261,0.000000,0.000000,1.500000,1.500000,1.387604,1.500000,0.663360,0.939201,1.000000,2.000000,5.756836,-16.457520,0.000000,0.000000
5.2900,9206,240,0,0,0.001355,0.007725,0.000000,0.000000,1.500000,1.500000,1.387855,1.500000,0.670094,0.941701,1.000000,2.000000,5.778809,-16.435547,0.000000,0.000000
5.3000,9207,240,0,0,0.001365,0.007792,0.000000,0.000000,1.500000,1.500000,1.387681,1.500000,0.676828,0.944200,1.000000,2.000000,5.800781,-16.413574,0.000000,0.000000
5.3100,9208,240,0,0,0.001529,0.008424,0.000000,0.000000,1.500000,1.500000,1.388363,1.500000,0.683563,0.946700,1.000000,2.000000,5.822754,-16.391602,0.000000,0.000000
5.3200,9209,240,0,0,0.001801,0.008912,0.000000,0.000000,1.500000,1.500000,1.388224,1.500000,0.690297,0.949200,1.000000,2.000000,5.844727,-16.369629,0.000000,0.000000
5.3300,9210,240,0,0,0.001915,0.009222,0.000000,0.000000,1.500000,1.500000,1.389589,1.500000,0.697031,0.951700,1.000000,2.000000,5.888672,-16.369629,0.000000,0.000000
5.3400,9211,240,0,0,0.001963,0.009353,0.000000,0.000000,1.500000,1.500000,1.390813,1.500000,0.703765,0.954200,1.000000,2.000000,5.910645,-16.347656,0.000000,0.000000
5.3500,9212,240,0,0,0.001743,0.008764,0.000000,0.000000,1.500000,1.500000,1.392764,1.500000,0.710499,0.956699,1.000000,2.000000,5.954590,-16.347656,0.000000,0.000000
5.3600,9213,240,0,0,0.001599,0.008705,0.000000,0.000000,1.500000,1.500000,1.394739,1.500000,0.717233,0.959199,1.000000,2.000000,5.976562,-16.347656,0.000000,0.000000
5.3700,9214,240,0,0,0.001489,0.008167,0.000000,0.000000,1.500000,1.500000,1.395998,1.500000,0.723967,0.961699,1.000000,2.000000,5.998535,-16.347656,0.000000,0.000000
5.3800,9215,240,0,0,0.001662,0.007750,0.000000,0.000000,1.500000,1.500000,1.396244,1.500000,0.730702,0.964199,1.000000,2.000000,5.998535,-16.325684,0.000000,0.000000
5.3900,9216,240,0,0,0.001534,0.007962,0.000000,0.000000,1.500000,1.500000,1.397448,1.500000,0.737436,0.966699,1.000000,2.000000,6.020508,-16.325684,0.000000,0.000000
5.4000,9217,240,0,0,0.001612,0.008573,0.000000,0.000000,1.500000,1.500000,1.399096,1.500000,0.744170,0.969199,1.000000,2.000000,6.042480,-16.303711,0.000000,0.000000
5.4100,9218,240,0,0,0.001452,0.009262,0.000000,0.000000,1.500000,1.500000,1.400263,1.500000,0.750904,0.971698,1.000000,2.000000,6.064453,-16.303711,0.000000,0.000000
5.4200,9219,240,0,0,0.001442,0.008346,0.000000,0.000000,1.500000,1.500000,1.400056,1.500000,0.757638,0.974198,1.000000,2.000000,6.064453,-16.281738,0.000000,0.000000
5.4300,9220,240,0,0,0.001301,0.008221,0.000000,0.000000,1.500000,1.500000,1.402004,1.500000,0.764372,0.976698,1.000000,2.000000,6.108398,-16.281738,0.000000,0.000000
5.4400,9221,240,0,0,0.002044,0.007589,0.000000,0.000000,1.500000,1.500000,1.403152,1.500000,0.771106,0.979198,1.000000,2.000000,6.130371,-16.281738,0.000000,0.000000
5.4500,9222,240,0,0,0.001989,0.007751,0.000000,0.000000,1.500000,1.500000,1.402611,1.500000,0.777840,0.981698,1.000000,2.000000,6.152344,-16.281738,0.000000,0.000000
5.4600,9223,240,0,0,0.002185,0.007913,0.000000,0.000000,1.500000,1.500000,1.403349,1.500000,0.784575,0.984197,1.000000,2.000000,6.196289,-16.281738,0.000000,0.000000
5.4700,9224,240,0,0,0.003026,0.008141,0.000000,0.000000,1.500000,1.500000,1.404162,1.500000,0.791309,0.986697,1.000000,2.000000,6.262207,-16.281738,0.000000,0.000000
5.4800,9225,240,0,0,0.003462,0.008189,0.000000,0.000000,1.500000,1.500000,1.406062,1.500000,0.798043,0.989197,1.000000,2.000000,6.350098,-16.303711,0.000000,0.000000
5.4900,9226,240,0,0,0.003607,0.008093,0.000000,0.000000,1.500000,1.500000,1.407170,1.500000,0.804777,0.991697,1.000000,2.000000,6.437988,-16.303711,0.000000,0.000000
5.5000,9227,240,0,0,0.003756,0.008518,0.000000,0.000000,1.500000,1.500000,1.409562,1.500000,0.811511,0.994197,1.000000,2.000000,6.547852,-16.303711,0.000000,0.000000
5.5100,9228,240,0,0,0.003797,0.009135,0.000000,0.000000,1.500000,1.500000,1.412980,1.500000,0.818245,0.996697,1.000000,2.000000,6.745605,-16.325684,0.000000,0.000000
5.5200,9229,240,0,0,0.004697,0.008833,0.000000,0.000000,1.500000,1.500000,1.414421,1.500000,0.824979,0.999196,1.000000,2.000000,6.921387,-16.325684,0.000000,0.000000
5.5300,9230,240,0,0,0.005539,0.008661,0.000000,0.000000,1.500000,1.500000,1.416592,1.500000,0.831713,0.001696,1.000000,2.000000,7.119141,-16.303711,0.000000,0.000000
5.5400,9231,240,0,0,0.004853,0.008374,0.000000,0.000000,1.500000,1.500000,1.416084,1.500000,0.838448,0.004196,1.000000,2.000000,7.338867,-16.303711,0.000000,0.000000
5.5500,9232,240,0,0,0.003951,0.007177,0.000000,0.000000,1.500000,1.500000,1.415142,1.500000,0.845182,0.006696,1.000000,2.000000,7.624512,-16.281738,0.000000,0.000000
5.5600,9233,240,0,0,0.003212,0.005923,0.000000,0.000000,1.500000,1.500000,1.413203,1.500000,0.851916,0.009196,1.000000,2.000000,7.888184,-16.259766,0.000000,0.000000
5.5700,9234,240,0,0,0.003392,0.005589,0.000000,0.000000,1.500000,1.500000,1.411267,1.500000,0.858650,0.011696,1.000000,2.000000,8.173828,-16.259766,0.000000,0.000000
5.5800,9235,240,0,0,0.004723,0.005378,0.000000,0.000000,1.500000,1.500000,1.411158,1.500000,0.865384,0.014196,1.000000,2.000000,8.503418,-16.237793,0.000000,0.000000
5.5900,9237,240,0,0,0.004997,0.006698,0.000000,0.000000,1.422956,1.500000,1.405567,1.500000,0.878852,0.019196,1.000000,2.000000,9.206543,-16.193848,0.000000,0.000000
5.6000,9238,240,0,0,0.005059,0.007342,0.000000,0.000000,1.315142,1.500000,1.402702,1.500000,0.885587,0.021696,1.000000,2.000000,9.602051,-16.149902,0.000000,0.000000
5.6100,9239,240,0,0,0.005742,0.007088,0.000000,0.000000,1.208365,1.500000,1.400433,1.500000,0.892321,0.024196,1.000000,2.000000,10.019531,-16.105957,0.000000,0.000000
5.6200,9240,240,0,0,0.015288,0.006817,0.000000,0.000000,1.108291,1.500000,1.401825,1.500000,0.899055,0.026696,1.000000,2.000000,10.480957,-16.062012,0.000000,0.000000
5.6300,9241,240,0,0,0.025215,0.006976,0.008425,0.000000,1.008816,1.500000,1.403291,1.500000,0.905789,0.029196,1.000000,2.000000,10.986328,-15.974121,0.000000,0.000000
5.6400,9242,240,0,0,0.029842,0.007177,0.036605,0.000000,0.894588,1.500000,1.404764,1.500000,0.912523,0.031696,1.000000,2.000000,11.535645,-15.930176,0.000000,0.000000
5.6500,9243,240,0,0,0.031131,0.007525,0.064061,0.000000,0.781261,1.500000,1.406247,1.500000,0.919257,0.034196,1.000000,2.000000,12.194824,-15.930176,0.000000,0.000000
5.6600,9244,240,0,0,0.029981,0.008062,0.079204,0.000000,0.663538,1.500000,1.407693,1.500000,0.925991,0.036696,1.000000,2.000000,12.919922,-15.930176,0.000000,0.000000
5.6700,9245,240,0,0,0.028668,0.007811,0.083062,0.000000,0.544480,1.500000,1.410143,1.500000,0.932725,0.039196,1.000000,2.000000,13.710938,-15.952148,0.000000,0.000000
5.6800,9246,240,0,0,0.029445,0.007991,0.083625,0.000000,0.437157,1.488148,1.413110,1.500000,0.939460,0.041696,1.000000,2.000000,14.589844,-15.974121,0.000000,0.000000
5.6900,9247,240,0,0,0.031236,0.008201,0.092063,0.000000,0.338432,1.395548,1.417293,1.500000,0.946194,0.044196,2.000000,2.000000,15.534668,-16.018066,0.000000,0.000000
5.7000,9248,240,0,0,0.033085,0.008880,0.099950,0.000000,0.258761,1.316031,1.421027,1.500000,0.952928,0.046696,2.000000,2.000000,16.567383,-16.062012,0.000000,0.000000
5.7100,9249,240,0,0,0.048288,0.009355,0.143207,0.000000,0.197491,1.236627,1.425634,1.500000,0.959662,0.049196,2.000000,2.000000,17.666016,-16.083984,0.000000,0.000000
5.7200,9250,240,0,0,0.061015,0.008848,0.227754,0.000000,0.142792,1.175598,1.430836,1.500000,0.966396,0.051696,2.000000,2.000000,18.786621,-16.127930,0.000000,0.000000
5.7300,9251,240,0,0,0.066091,0.008945,0.309380,0.000000,0.089753,1.127536,1.435997,1.500000,0.973130,0.054196,2.000000,2.000000,19.995117,-16.149902,0.000000,0.000000
5.7400,9252,240,0,0,0.065358,0.008836,0.362669,0.000000,0.036285,1.086933,1.440179,1.500000,0.979864,0.056696,2.000000,2.000000,21.269531,-16.171875,0.000000,0.000000
5.7500,9253,240,0,0,0.070809,0.009896,0.402504,0.000000,0.000000,1.056395,1.447255,1.500000,0.986599,0.059196,2.000000,2.000000,22.587891,-16.193848,0.000000,0.000000
5.7600,9254,240,0,0,0.078990,0.009831,0.458837,0.000000,0.000000,1.027704,1.451266,1.500000,0.993333,0.061696,2.000000,2.000000,23.906250,-16.237793,0.000000,0.000000
5.7700,9255,240,0,0,0.081620,0.009000,0.511741,0.000000,0.000000,1.000185,1.455821,1.500000,0.000067,0.064196,2.000000,2.000000,25.290527,-16.281738,0.000000,0.000000
5.7800,9256,240,0,0,0.079850,0.008176,0.542398,0.000000,0.000000,0.977904,1.458017,1.500000,0.006801,0.066696,2.000000,2.000000,26.718750,-16.303711,0.000000,0.000000
5.7900,9257,240,0,0,0.075303,0.007428,0.547010,0.000000,0.000000,0.951311,1.460899,1.500000,0.013535,0.069196,2.000000,2.000000,28.125000,-16.325684,0.000000,0.000000
5.8000,9258,240,0,0,0.070156,0.006398,0.530937,0.000000,0.000000,0.923230,1.463889,1.500000,0.020269,0.071696,2.000000,2.000000,29.509277,-16.347656,0.000000,0.000000
5.8100,9259,240,0,0,0.064871,0.005936,0.500616,0.000000,0.000000,0.896765,1.465012,1.500000,0.027003,0.074196,2.000000,2.000000,30.805664,-16.347656,0.000000,0.000000
5.8200,9260,240,0,0,0.060246,0.006375,0.463109,0.000000,0.000000,0.870355,1.466456,1.500000,0.033737,0.076696,2.000000,2.000000,32.036133,-16.347656,0.000000,0.000000
5.8300,9261,240,0,0,0.055697,0.006779,0.423295,0.000000,0.000000,0.843836,1.466978,1.500000,0.040471,0.079196,2.000000,2.000000,33.134766,-16.347656,0.000000,0.000000
5.8400,9262,240,0,0,0.052239,0.006822,0.383893,0.000000,0.000000,0.814631,1.466576,1.500000,0.047205,0.081696,2.000000,2.000000,34.123535,-16.347656,0.000000,0.000000
5.8500,9263,240,0,0,0.049277,0.006740,0.347857,0.000000,0.000000,0.785638,1.464747,1.500000,0.053939,0.084196,2.000000,2.000000,35.024414,-16.347656,0.000000,0.000000
5.8600,9264,240,0,0,0.046585,0.006893,0.315859,0.000000,0.000000,0.759797,1.464642,1.500000,0.060673,0.086696,2.000000,2.000000,35.859375,-16.303711,0.000000,0.000000
5.8700,9265,240,0,0,0.044326,0.007140,0.287110,0.000000,0.000000,0.734244,1.464098,1.500000,0.067407,0.089196,2.000000,2.000000,36.650391,-16.281738,0.000000,0.000000
5.8800,9266,240,0,0,0.041691,0.008155,0.260689,0.000000,0.000000,0.706057,1.464153,1.500000,0.074141,0.091696,2.000000,2.000000,37.353516,-16.259766,0.000000,0.000000
5.8900,9267,240,0,0,0.038884,0.008816,0.234190,0.000000,0.000000,0.675486,1.464796,1.500000,0.080875,0.094196,2.000000,2.000000,38.034668,-16.237793,0.000000,0.000000
5.9000,9268,240,0,0,0.036364,0.008875,0.207899,0.000000,0.000000,0.643687,1.465848,1.500000,0.087609,0.096696,2.000000,2.000000,38.649902,-16.215820,0.000000,0.000000
5.9100,9269,240,0,0,0.034683,0.008132,0.184139,0.000000,0.000000,0.611735,1.468997,1.500000,0.094343,0.099196,2.000000,2.000000,39.265137,-16.193848,0.000000,0.000000
5.9200,9270,240,0,0,0.032492,0.008245,0.162266,0.000000,0.000000,0.579271,1.472212,1.500000,0.101077,0.101696,2.000000,2.000000,39.858398,-16.193848,0.000000,0.000000
5.9300,9271,240,0,0,0.030642,0.008093,0.141460,0.000000,0.000000,0.538475,1.473883,1.500000,0.107811,0.104196,2.000000,2.000000,40.407715,-16.193848,0.000000,0.000000
5.9400,9272,240,0,0,0.028405,0.008629,0.120794,0.000000,0.000000,0.499055,1.474968,1.500000,0.114545,0.106696,2.000000,2.000000,40.979004,-16.215820,0.000000,0.000000
5.9500,9273,240,0,0,0.026476,0.009655,0.100119,0.000000,0.000000,0.464904,1.478264,1.500000,0.121279,0.109196,2.000000,2.000000,41.506348,-16.259766,0.000000,0.000000
5.9600,9274,240,0,0,0.024448,0.009937,0.080666,0.000000,0.000000,0.429678,1.484088,1.500000,0.128013,0.111696,2.000000,2.000000,41.989746,-16.281738,0.000000,0.000000
5.9700,9275,240,0,0,0.021886,0.009563,0.059426,0.000000,0.000000,0.393275,1.492453,1.500000,0.134747,0.114196,2.000000,2.000000,42.429199,-16.347656,0.000000,0.000000
5.9800,9276,240,0,0,0.019457,0.008540,0.037808,0.000000,0.000000,0.359713,1.499616,1.500000,0.141481,0.116696,2.000000,2.000000,42.824707,-16.413574,0.000000,0.000000
5.9900,9277,240,0,0,0.015667,0.007957,0.022637,0.000000,0.000000,0.328739,1.500000,1.500000,0.148215,0.119196,3.000000,2.000000,43.110352,-16.501465,0.000000,0.000000
6.0000,9278,240,0,0,0.013622,0.007119,0.013554,0.000000,0.000000,0.292914,1.500000,1.500000,0.154949,0.121696,3.000000,2.000000,43.374023,-16.611328,0.000000,0.000000
6.0100,9279,240,0,0,0.011496,0.006309,0.008115,0.000000,0.000000,0.259469,1.500000,1.500000,0.161683,0.124196,3.000000,2.000000,43.615723,-16.743164,0.000000,0.000000
6.0200,9280,240,0,0,0.009426,0.005128,0.004859,0.000000,0.000000,0.218515,1.500000,1.500000,0.168417,0.126696,3.000000,2.000000,43.791504,-16.875000,0.000000,0.000000
6.0300,9281,240,0,0,0.008234,0.004740,0.002909,0.000000,0.000000,0.164517,1.500000,1.500000,0.175151,0.129196,3.000000,2.000000,43.879395,-17.028809,0.000000,0.000000
6.0400,9282,240,0,0,0.006499,0.005757,0.001742,0.000000,0.000000,0.108622,1.500000,1.500000,0.181885,0.131696,3.000000,2.000000,43.901367,-17.226562,0.000000,0.000000
6.0500,9283,240,0,0,0.005570,0.004807,0.001043,0.000000,0.000000,0.057244,1.500000,1.500000,0.188619,0.134196,3.000000,2.000000,43.923340,-17.380371,0.000000,0.000000
6.0600,9284,240,0,0,0.006198,0.004437,0.000624,0.000000,0.000000,0.012242,1.500000,1.500000,0.195353,0.136695,3.000000,2.000000,43.923340,-17.490234,0.000000,0.000000
6.0700,9285,240,0,0,0.007803,0.004856,0.000374,0.000000,0.000000,0.000000,1.500000,1.500000,0.202087,0.139195,3.000000,2.000000,43.923340,-17.556152,0.000000,0.000000
6.0800,9287,240,0,0,0.010595,0.005019,0.000134,0.000000,0.000000,0.000000,1.500000,1.500000,0.215555,0.144195,3.000000,2.000000,43.879395,-17.644043,0.000000,0.000000
6.0900,9288,240,0,0,0.012278,0.004142,0.000080,0.000000,0.000000,0.000000,1.500000,1.500000,0.222288,0.146695,3.000000,2.000000,43.879395,-17.687988,0.000000,0.000000
6.1000,9289,240,0,0,0.013598,0.003310,0.000048,0.000000,0.000000,0.000000,1.500000,1.500000,0.229022,0.149195,3.000000,2.000000,43.901367,-17.709961,0.000000,0.000000
6.1100,9290,240,0,0,0.013702,0.002795,0.000029,0.000000,0.000000,0.000000,1.500000,1.500000,0.235756,0.151695,3.000000,2.000000,43.945312,-17.709961,0.000000,0.000000
6.1200,9291,240,0,0,0.013860,0.003724,0.000017,0.000000,0.000000,0.000000,1.500000,1.500000,0.242490,0.154195,3.000000,2.000000,44.011230,-17.709961,0.000000,0.000000
6.1300,9292,240,0,0,0.012850,0.003822,0.000010,0.000000,0.000000,0.000000,1.500000,1.500000,0.249224,0.156695,3.000000,2.000000,44.099121,-17.709961,0.000000,0.000000
6.1400,9293,240,0,0,0.011880,0.003064,0.000006,0.000000,0.000000,0.000000,1.500000,1.500000,0.255959,0.159195,3.000000,2.000000,44.187012,-17.753906,0.000000,0.000000
6.1500,9294,240,0,0,0.011628,0.002832,0.000004,0.000000,0.000000,0.000000,1.500000,1.500000,0.262693,0.161695,3.000000,2.000000,44.252930,-17.841797,0.000000,0.000000
6.1600,9295,240,0,0,0.009985,0.003606,0.000002,0.000000,0.000000,0.000000,1.500000,1.500000,0.269427,0.164195,3.000000,2.000000,44.296875,-17.973633,0.000000,0.000000
6.1700,9296,240,0,0,0.009099,0.004082,0.000001,0.000000,0.000000,0.000000,1.500000,1.500000,0.276161,0.166695,3.000000,2.000000,44.296875,-18.171387,0.000000,0.000000
6.1800,9297,240,0,0,0.008127,0.004643,0.000001,0.000000,0.000000,0.000000,1.500000,1.500000,0.282895,0.169195,3.000000,2.000000,44.296875,-18.347168,0.000000,0.000000
6.1900,9298,240,0,0,0.007982,0.005260,0.000000,0.000000,0.000000,0.000000,1.500000,1.500000,0.289629,0.171695,3.000000,2.000000,44.274902,-18.457031,0.000000,0.000000
6.2000,9299,240,0,0,0.008735,0.005683,0.000000,0.000000,0.000000,0.000000,1.500000,1.500000,0.296363,0.174195,3.000000,2.000000,44.208984,-18.522949,0.000000,0.000000
6.2100,9300,240,0,0,0.009117,0.005209,0.000000,0.000000,0.000000,0.000000,1.500000,1.500000,0.303097,0.176695,3.000000,2.000000,44.121094,-18.610840,0.000000,0.000000
6.2200,9301,240,0,0,0.008317,0.005175,0.000000,0.000000,0.000000,0.000000,1.500000,1.500000,0.309832,0.179195,3.000000,2.000000,44.011230,-18.698730,0.000000,0.000000
6.2300,9302,240,0,0,0.008805,0.004166,0.000000,0.000000,0.000000,0.000000,1.500000,1.500000,0.316566,0.181695,3.000000,2.000000,43.901367,-18.764648,0.000000,0.000000
6.2400,9303,240,0,0,0.009573,0.004119,0.000000,0.000000,0.000000,0.000000,1.500000,1.500000,0.323300,0.184195,3.000000,2.000000,43.835449,-18.808594,0.000000,0.000000
6.2500,9304,240,0,0,0.008641,0.004016,0.000000,0.000000,0.000000,0.000000,1.500000,1.500000,0.330034,0.186695,3.000000,2.000000,43.791504,-18.830566,0.000000,0.000000
6.2600,9305,240,0,0,0.008343,0.004506,0.000000,0.000000,0.000000,0.000000,1.500000,1.500000,0.336768,0.189195,3.000000,2.000000,43.791504,-18.852539,0.000000,0.000000
6.2700,9306,240,0,0,0.007355,0.005704,0.000000,0.000000,0.000000,0.000000,1.500000,1.500000,0.343502,0.191695,3.000000,2.000000,43.813477,-18.874512,0.000000,0.000000
6.2800,9307,240,0,0,0.005999,0.006099,0.000000,0.000000,0.000000,0.000000,1.500000,1.500000,0.350236,0.194195,3.000000,2.000000,43.813477,-18.896484,0.000000,0.000000
6.2900,9308,240,0,0,0.005099,0.006814,0.000000,0.000000,0.000000,0.000000,1.500000,1.500000,0.356971,0.196695,3.000000,2.000000,43.813477,-18.918457,0.000000,0.000000
6.3000,9309,240,0,0,0.007075,0.006868,0.000000,0.000000,0.008321,0.000000,1.500000,1.500000,0.363705,0.199195,3.000000,2.000000,43.813477,-18.940430,0.000000,0.000000
6.3100,9310,240,0,0,0.012890,0.007398,0.000000,0.000000,0.051467,0.000000,1.500000,1.500000,0.370439,0.201695,3.000000,2.000000,43.813477,-18.984375,0.000000,0.000000
6.3200,9311,240,0,0,0.017656,0.007672,0.000000,0.000000,0.091425,0.000000,1.500000,1.500000,0.377173,0.204195,3.000000,2.000000,43.835449,-19.028320,0.000000,0.000000
6.3300,9312,240,0,0,0.019528,0.006442,0.000000,0.000000,0.135058,0.000000,1.500000,1.500000,0.383907,0.206695,3.000000,2.000000,43.835449,-19.094238,0.000000,0.000000
6.3400,9313,240,0,0,0.019394,0.005785,0.000000,0.000000,0.183011,0.000000,1.500000,1.500000,0.390641,0.209195,3.000000,2.000000,43.769531,-19.182129,0.000000,0.000000
6.3500,9314,240,0,0,0.017654,0.006693,0.000000,0.000000,0.225920,0.074967,1.500000,1.500000,0.397375,0.211695,3.000000,2.000000,43.681641,-19.291992,0.000000,0.000000
6.3600,9315,240,0,0,0.015795,0.007522,0.000000,0.000000,0.258062,0.211471,1.500000,1.500000,0.404109,0.214194,3.000000,2.000000,43.571777,-19.423828,0.000000,0.000000
6.3700,9316,240,0,0,0.014352,0.008071,0.000000,0.000000,0.288603,0.344301,1.500000,1.500000,0.410844,0.216694,3.000000,2.000000,43.417969,-19.599609,0.000000,0.000000
6.3800,9317,240,0,0,0.017031,0.008719,0.000000,0.000000,0.314564,0.477122,1.500000,1.500000,0.417578,0.219194,0.000000,2.000000,43.198242,-19.797363,0.000000,0.000000
6.3900,9318,240,0,0,0.025117,0.008261,0.008916,0.000000,0.340139,0.612773,1.500000,1.500000,0.424312,0.221694,0.000000,2.000000,42.956543,-20.104980,0.000000,0.000000
6.4000,9319,240,0,0,0.029141,0.008076,0.035438,0.000000,0.363982,0.756724,1.500000,1.500000,0.431046,0.224194,0.000000,2.000000,42.714844,-20.544434,0.000000,0.000000
6.4100,9320,240,0,0,0.033910,0.006190,0.066096,0.000000,0.389682,0.902000,1.415144,1.500000,0.437780,0.226694,0.000000,2.000000,42.451172,-21.071777,0.000000,0.000000
6.4200,9321,240,0,0,0.039287,0.005559,0.107329,0.000000,0.413048,1.043757,1.312077,1.500000,0.444514,0.229194,0.000000,2.000000,42.121582,-21.511230,0.000000,0.000000
6.4300,9322,240,0,0,0.042883,0.011098,0.146245,0.000000,0.440033,1.188217,1.221967,1.500000,0.451248,0.231694,0.000000,2.000000,41.726074,-21.862793,0.000000,0.000000
6.4400,9323,240,0,0,0.049792,0.019574,0.193175,0.000000,0.464709,1.325217,1.139655,1.500000,0.002500,0.234194,1.000000,2.000000,41.264648,-22.192383,0.000000,0.000000
6.4500,9324,240,0,0,0.052084,0.025277,0.237594,0.006499,0.497268,1.454788,1.060861,1.500000,0.005000,0.236694,1.000000,2.000000,40.803223,-22.412109,0.000000,0.000000
6.4600,9325,240,0,0,0.052602,0.028124,0.268570,0.019046,0.526075,1.500000,0.988102,1.500000,0.007500,0.239194,1.000000,2.000000,40.144043,-22.543945,0.000000,0.000000
6.4700,9326,240,0,0,0.053092,0.027524,0.288730,0.028427,0.552911,1.500000,0.919582,1.500000,0.010000,0.241694,1.000000,2.000000,39.462891,-22.653809,0.000000,0.000000
6.4800,9327,240,0,0,0.056116,0.025777,0.306988,0.030062,0.578221,1.500000,0.858916,1.500000,0.012500,0.244194,1.000000,2.000000,38.671875,-22.719727,0.000000,0.000000
6.4900,9328,240,0,0,0.059912,0.024618,0.333837,0.028802,0.609127,1.500000,0.796752,1.500000,0.015000,0.246694,1.000000,2.000000,37.902832,-22.653809,0.000000,0.000000
6.5000,9329,240,0,0,0.060670,0.022311,0.357639,0.024087,0.640452,1.500000,0.734763,1.500000,0.017500,0.249194,1.000000,2.000000,37.133789,-22.434082,0.000000,0.000000
6.5100,9330,240,0,0,0.062347,0.020327,0.375046,0.016847,0.674520,1.500000,0.671769,1.500000,0.020000,0.251694,1.000000,2.000000,36.342773,-22.060547,0.000000,0.000000
6.5200,9331,240,0,0,0.063353,0.016699,0.391838,0.010099,0.707934,1.500000,0.606552,1.500000,0.022500,0.254194,1.000000,2.000000,35.507812,-21.555176,0.000000,0.000000
6.5300,9332,240,0,0,0.062447,0.013202,0.401262,0.006046,0.744897,1.500000,0.545030,1.500000,0.025000,0.256694,1.000000,2.000000,34.650879,-20.961914,0.000000,0.000000
6.5400,9333,240,0,0,0.060433,0.012372,0.400820,0.003620,0.780579,1.500000,0.488115,1.500000,0.027500,0.259194,1.000000,2.000000,33.750000,-20.280762,0.000000,0.000000
6.5500,9334,240,0,0,0.059142,0.012409,0.392230,0.002168,0.811366,1.500000,0.435646,1.500000,0.030000,0.261695,1.000000,2.000000,32.871094,-19.467773,0.000000,0.000000
6.5600,9335,240,0,0,0.062519,0.012206,0.393373,0.001298,0.840117,1.500000,0.390170,1.500000,0.032500,0.264195,1.000000,2.000000,31.992188,-18.588867,0.000000,0.000000
6.5700,9337,240,0,0,0.063534,0.014946,0.412877,0.000465,0.897591,1.500000,0.301229,1.500000,0.037500,0.269195,1.000000,2.000000,30.322266,-16.567383,0.000000,0.000000
6.5800,9338,240,0,0,0.062233,0.019074,0.413741,0.000279,0.921247,1.500000,0.259308,1.500000,0.040000,0.271695,1.000000,2.000000,29.531250,-15.490723,0.000000,0.000000
6.5900,9339,240,0,0,0.059167,0.023811,0.405306,0.004537,0.944349,1.500000,0.217032,1.462132,0.042500,0.274195,1.000000,2.000000,28.762207,-14.392090,0.000000,0.000000
6.6000,9340,240,0,0,0.055212,0.025402,0.384912,0.012938,0.961882,1.500000,0.173008,1.417043,0.045000,0.276695,1.000000,2.000000,28.037109,-13.315430,0.000000,0.000000
6.6100,9341,240,0,0,0.051183,0.028030,0.358562,0.021672,0.977169,1.500000,0.125227,1.373247,0.047500,0.279195,1.000000,2.000000,27.312012,-12.238770,0.000000,0.000000
6.6200,9342,240,0,0,0.046788,0.034941,0.325325,0.038052,0.993714,1.500000,0.084461,1.335598,0.050000,0.281695,1.000000,2.000000,26.630859,-11.206055,0.000000,0.000000
6.6300,9343,240,0,0,0.044386,0.038666,0.293372,0.059452,1.003837,1.500000,0.044301,1.300395,0.052500,0.284196,1.000000,2.000000,25.971680,-10.217285,0.000000,0.000000
6.6400,9344,240,0,0,0.041643,0.041465,0.263678,0.078196,1.011542,1.500000,0.014081,1.258992,0.055000,0.286696,1.000000,2.000000,25.334473,-9.294434,0.000000,0.000000
6.6500,9345,240,0,0,0.041913,0.043936,0.240987,0.095217,1.016897,1.500000,0.000000,1.213233,0.057500,0.289196,1.000000,2.000000,24.763184,-8.371582,0.000000,0.000000
6.6600,9346,240,0,0,0.042006,0.044020,0.230025,0.107839,1.014741,1.500000,0.000000,1.158568,0.060000,0.291696,1.000000,2.000000,24.213867,-7.492676,0.000000,0.000000
6.6700,9347,240,0,0,0.039830,0.040802,0.218535,0.111481,1.004209,1.500000,0.000000,1.111112,0.062500,0.294196,1.000000,2.000000,23.664551,-6.591797,0.000000,0.000000
6.6800,9348,240,0,0,0.037161,0.037000,0.201210,0.105344,0.993070,1.500000,0.000000,1.072497,0.065000,0.296696,1.000000,2.000000,23.093262,-5.690918,0.000000,0.000000
6.6900,9349,240,0,0,0.035355,0.035369,0.182437,0.096395,0.975950,1.500000,0.000000,1.047128,0.067500,0.299196,1.000000,2.000000,22.543945,-4.812012,0.000000,0.000000
6.7000,9350,240,0,0,0.033496,0.033522,0.164464,0.087850,0.956583,1.500000,0.000000,1.025096,0.070000,0.301696,1.000000,2.000000,21.994629,-3.889160,0.000000,0.000000
6.7100,9351,240,0,0,0.032081,0.031337,0.147839,0.078474,0.937898,1.500000,0.000000,1.005331,0.072500,0.304197,1.000000,2.000000,21.467285,-2.944336,0.000000,0.000000
6.7200,9352,240,0,0,0.032850,0.028141,0.135659,0.066878,0.914155,1.500000,0.000000,0.985926,0.075000,0.306697,1.000000,2.000000,20.895996,-1.999512,0.000000,0.000000
6.7300,9353,240,0,0,0.033329,0.025525,0.133231,0.053321,0.890476,1.500000,0.000000,0.966449,0.077500,0.309197,1.000000,2.000000,20.346680,-1.032715,0.000000,0.000000
6.7400,9354,240,0,0,0.031472,0.024262,0.127791,0.042078,0.864495,1.500000,0.000000,0.953116,0.080000,0.311697,1.000000,2.000000,19.775391,-0.065918,0.000000,0.000000
6.7500,9355,240,0,0,0.028280,0.021519,0.114210,0.030861,0.837672,1.500000,0.000000,0.940747,0.082500,0.314197,1.000000,2.000000,19.248047,0.900879,0.000000,0.000000
6.7600,9356,240,0,0,0.024662,0.018479,0.092416,0.019027,0.812948,1.500000,0.000000,0.935021,0.085000,0.316697,1.000000,2.000000,18.742676,1.867676,0.000000,0.000000
6.7700,9357,240,0,0,0.021496,0.015484,0.065982,0.011392,0.791279,1.500000,0.000000,0.924330,0.087500,0.319197,1.000000,2.000000,18.303223,2.878418,0.000000,0.000000
6.7800,9358,240,0,0,0.019955,0.012533,0.040853,0.006821,0.774747,1.500000,0.000000,0.915483,0.090000,0.321697,1.000000,2.000000,17.951660,3.867188,0.000000,0.000000
6.7900,9359,240,0,0,0.021123,0.009847,0.026761,0.004084,0.758653,1.500000,0.000000,0.906522,0.092500,0.324197,1.000000,2.000000,17.687988,4.833984,0.000000,0.000000
6.8000,9360,240,0,0,0.023787,0.007547,0.025507,0.002445,0.751050,1.500000,0.000000,0.898642,0.095000,0.326698,1.000000,2.000000,17.490234,5.778809,0.000000,0.000000
6.8100,9361,240,0,0,0.026071,0.006276,0.036495,0.001464,0.741700,1.500000,0.000000,0.891393,0.097500,0.329198,1.000000,2.000000,17.270508,6.745605,0.000000,0.000000
6.8200,9362,240,0,0,0.025088,0.005395,0.043931,0.000877,0.729553,1.500000,0.000000,0.886321,0.100000,0.331698,1.000000,2.000000,16.962891,7.712402,0.000000,0.000000
6.8300,9363,240,0,0,0.024113,0.004403,0.043983,0.000525,0.716093,1.500000,0.000000,0.879705,0.102500,0.334198,1.000000,2.000000,16.611328,8.723145,0.000000,0.000000
6.8400,9364,240,0,0,0.022209,0.003374,0.037983,0.000314,0.702165,1.500000,0.000000,0.872847,0.105000,0.336698,1.000000,2.000000,16.237793,9.733887,0.000000,0.000000
6.8500,9365,240,0,0,0.020427,0.002701,0.026963,0.000188,0.697734,1.500000,0.000000,0.867837,0.107500,0.339198,1.000000,2.000000,15.930176,10.744629,0.000000,0.000000
6.8600,9366,240,0,0,0.019045,0.002456,0.016286,0.000113,0.686357,1.500000,0.000000,0.861736,0.109999,0.341698,1.000000,2.000000,15.578613,11.733398,0.000000,0.000000
6.8700,9367,240,0,0,0.016888,0.002873,0.009751,0.000067,0.684788,1.500000,0.000000,0.859485,0.112499,0.344198,1.000000,2.000000,15.227051,12.744141,0.000000,0.000000
6.8800,9368,240,0,0,0.014845,0.002504,0.005838,0.000040,0.682650,1.500000,0.000000,0.856639,0.114999,0.346699,1.000000,2.000000,14.919434,13.710938,0.000000,0.000000
6.8900,9369,240,0,0,0.014305,0.002218,0.003496,0.000024,0.676439,1.500000,0.000000,0.852920,0.117499,0.349199,1.000000,2.000000,14.611816,14.655762,0.000000,0.000000
6.9000,9370,240,0,0,0.016938,0.002719,0.002093,0.000014,0.674273,1.500000,0.000000,0.849896,0.119999,0.351699,1.000000,2.000000,14.326172,15.578613,0.000000,0.000000
6.9100,9371,240,0,0,0.018465,0.002750,0.001253,0.000009,0.671802,1.500000,0.000000,0.845167,0.122499,0.354199,1.000000,2.000000,14.062500,16.457520,0.000000,0.000000
6.9200,9372,240,0,0,0.018201,0.002426,0.000750,0.000005,0.671488,1.500000,0.000000,0.842235,0.124999,0.356699,1.000000,2.000000,13.820801,17.336426,0.000000,0.000000
6.9300,9373,240,0,0,0.017699,0.002039,0.000449,0.000003,0.666227,1.500000,0.000000,0.834370,0.127499,0.359199,1.000000,2.000000,13.579102,18.149414,0.000000,0.000000
6.9400,9374,240,0,0,0.016472,0.002627,0.000269,0.000002,0.662149,1.500000,0.000000,0.828679,0.129999,0.361699,1.000000,2.000000,13.381348,18.940430,0.000000,0.000000
6.9500,9375,240,0,0,0.014543,0.003762,0.000161,0.000001,0.658740,1.500000,0.000000,0.822942,0.132499,0.364199,1.000000,2.000000,13.227539,19.687500,0.000000,0.000000
6.9600,9376,240,0,0,0.013626,0.005148,0.000096,0.000001,0.652638,1.500000,0.000000,0.818845,0.134999,0.366699,1.000000,2.000000,13.029785,20.390625,0.000000,0.000000
6.9700,9377,240,0,0,0.013153,0.005104,0.000058,0.000000,0.642006,1.500000,0.000000,0.811838,0.137499,0.369200,1.000000,2.000000,12.854004,21.049805,0.000000,0.000000
6.9800,9378,240,0,0,0.012814,0.004693,0.000035,0.000000,0.632531,1.500000,0.000000,0.805757,0.139999,0.371700,1.000000,2.000000,12.744141,21.665039,0.000000,0.000000
6.9900,9379,240,0,0,0.012647,0.005220,0.000021,0.000000,0.621682,1.500000,0.000000,0.801118,0.142499,0.374200,1.000000,2.000000,12.612305,22.236328,0.000000,0.000000
7.0000,9380,240,0,0,0.013906,0.005200,0.000012,0.000000,0.614644,1.500000,0.000000,0.792822,0.144999,0.376700,1.000000,2.000000,12.436523,22.719727,0.000000,0.000000
7.0100,9381,240,0,0,0.013799,0.005091,0.000007,0.000000,0.604055,1.500000,0.000000,0.787211,0.147499,0.379200,1.000000,2.000000,12.260742,23.181152,0.000000,0.000000
7.0200,9382,240,0,0,0.015260,0.005719,0.000004,0.000000,0.589808,1.500000,0.000000,0.779247,0.149999,0.381700,1.000000,2.000000,12.062988,23.554688,0.000000,0.000000
7.0300,9383,240,0,0,0.016467,0.005380,0.000003,0.000000,0.575277,1.500000,0.000000,0.774156,0.152499,0.384200,1.000000,2.000000,11.799316,23.906250,0.000000,0.000000
7.0400,9384,240,0,0,0.014956,0.005494,0.000002,0.000000,0.558871,1.500000,0.000000,0.769492,0.154999,0.386700,1.000000,2.000000,11.535645,24.213867,0.000000,0.000000
7.0500,9385,240,0,0,0.014288,0.005961,0.000001,0.000000,0.537836,1.500000,0.000000,0.764548,0.157499,0.389201,1.000000,2.000000,11.337891,24.499512,0.000000,0.000000
7.0600,9387,240,0,0,0.016644,0.008539,0.000000,0.000000,0.503841,1.500000,0.000000,0.751115,0.162499,0.394201,1.000000,2.000000,11.074219,24.895020,0.000000,0.000000
7.0700,9388,240,0,0,0.019942,0.008794,0.000000,0.000000,0.478411,1.500000,0.000000,0.746447,0.164999,0.396701,1.000000,2.000000,10.986328,25.092773,0.000000,0.000000
7.0800,9389,240,0,0,0.021064,0.008810,0.002739,0.000000,0.449382,1.500000,0.000000,0.741584,0.167499,0.399201,1.000000,2.000000,10.898438,25.246582,0.000000,0.000000
7.0900,9390,240,0,0,0.019657,0.008358,0.002777,0.000000,0.417863,1.500000,0.000000,0.736482,0.169999,0.401701,1.000000,2.000000,10.810547,25.246582,0.000000,0.000000
7.1000,9391,240,0,0,0.018515,0.006808,0.001663,0.000000,0.391513,1.500000,0.000000,0.730622,0.172499,0.404201,1.000000,2.000000,10.722656,25.224609,0.000000,0.000000
7.1100,9392,240,0,0,0.022244,0.005239,0.004607,0.000000,0.368362,1.500000,0.000000,0.724107,0.174999,0.406701,1.000000,2.000000,10.612793,25.202637,0.000000,0.000000
7.1200,9393,240,0,0,0.026042,0.004250,0.020555,0.000000,0.341607,1.500000,0.000000,0.723422,0.177499,0.409201,2.000000,2.000000,10.524902,25.158691,0.000000,0.000000
7.1300,9394,240,0,0,0.028371,0.003933,0.041408,0.000000,0.317028,1.500000,0.000000,0.720078,0.179999,0.411702,2.000000,2.000000,10.480957,25.136719,0.000000,0.000000
7.1400,9395,240,0,0,0.028001,0.003485,0.057826,0.000000,0.296226,1.500000,0.000000,0.717794,0.182499,0.414202,2.000000,2.000000,10.458984,25.092773,0.000000,0.000000
7.1500,9396,240,0,0,0.026190,0.002850,0.061668,0.000000,0.271152,1.500000,0.000000,0.712446,0.184999,0.416702,2.000000,2.000000,10.393066,25.048828,0.000000,0.000000
