pc_time_s,seq_id,module_id,status,tx_drops,EMG R env,EMG L env,EMG R act,EMG L act,FSR RH,FSR RT,FSR LH,FSR LT,Phase R,Phase L,Gait R,Gait L,Thigh R,Thigh L,Tau R,Tau L
0.0000,0,240,0,0,0.01103,0.01179,0.03015,0.03393,0.69931,0.70224,0.69287,0.69006,0.00000,0.00000,2.00000,2.00000,-4.55593,-5.10500,0.00000,0.00000
0.0100,1,240,0,0,0.01119,0.01145,0.03095,0.03225,0.70105,0.69994,0.69449,0.69343,0.00000,0.00000,2.00000,2.00000,-4.54664,-5.11159,0.00000,0.00000
0.0200,2,240,0,0,0.01040,0.01116,0.02701,0.03082,0.70058,0.70141,0.69309,0.69195,0.00000,0.00000,2.00000,2.00000,-4.55607,-5.11567,0.00000,0.00000
0.0300,3,240,0,0,0.01053,0.01089,0.02764,0.02946,0.69950,0.70140,0.69381,0.69444,0.00000,0.00000,2.00000,2.00000,-4.56116,-5.11639,0.00000,0.00000
0.0400,4,240,0,0,0.01032,0.01078,0.02660,0.02888,0.69766,0.70009,0.69375,0.69436,0.00000,0.00000,2.00000,2.00000,-4.57268,-5.10944,0.00000,0.00000
0.0500,5,240,0,0,0.01029,0.01055,0.02645,0.02774,0.69858,0.70014,0.69371,0.69745,0.00000,0.00000,2.00000,2.00000,-4.58571,-5.11230,0.00000,0.00000
0.0600,6,240,0,0,0.01028,0.01065,0.02638,0.02823,0.69760,0.70091,0.69317,0.69925,0.00000,0.00000,2.00000,2.00000,-4.59363,-5.10701,0.00000,0.00000
0.0700,7,240,0,0,0.01073,0.01076,0.02865,0.02879,0.69777,0.70167,0.69508,0.70205,0.00000,0.00000,2.00000,2.00000,-4.60739,-5.11056,0.00000,0.00000
0.0800,8,240,0,0,0.01075,0.01039,0.02873,0.02694,0.69995,0.69968,0.69574,0.69901,0.00000,0.00000,2.00000,2.00000,-4.61826,-5.12554,0.00000,0.00000
0.0900,9,240,0,0,0.01046,0.01034,0.02732,0.02668,0.69919,0.69857,0.69636,0.69775,0.00000,0.00000,2.00000,2.00000,-4.63139,-5.12329,0.00000,0.00000
0.1000,10,240,0,0,0.01056,0.01032,0.02778,0.02660,0.69864,0.69953,0.69621,0.69733,0.00000,0.00000,2.00000,2.00000,-4.66137,-5.13220,0.00000,0.00000
0.1100,11,240,0,0,0.01045,0.01030,0.02726,0.02650,0.69857,0.70022,0.69781,0.70014,0.00000,0.00000,2.00000,2.00000,-4.66092,-5.13248,0.00000,0.00000
0.1200,12,240,0,0,0.01080,0.01063,0.02902,0.02813,0.69710,0.69844,0.70083,0.69958,0.00000,0.00000,2.00000,2.00000,-4.67472,-5.12416,0.00000,0.00000
0.1300,13,240,0,0,0.01062,0.01048,0.02810,0.02740,0.69781,0.69936,0.70159,0.69951,0.00000,0.00000,2.00000,2.00000,-4.68543,-5.10508,0.00000,0.00000
0.1400,14,240,0,0,0.01079,0.01073,0.02895,0.02864,0.70126,0.70140,0.70338,0.70059,0.00000,0.00000,2.00000,2.00000,-4.67954,-5.09821,0.00000,0.00000
0.1500,15,240,0,0,0.01082,0.01088,0.02908,0.02942,0.70196,0.69966,0.70220,0.70222,0.00000,0.00000,2.00000,2.00000,-4.68184,-5.10253,0.00000,0.00000
0.1600,16,240,0,0,0.01073,0.01089,0.02863,0.02947,0.69789,0.70009,0.70199,0.70138,0.00000,0.00000,2.00000,2.00000,-4.68519,-5.09682,0.00000,0.00000
0.1700,17,240,0,0,0.01049,0.01086,0.02745,0.02929,0.69699,0.70075,0.70150,0.70253,0.00000,0.00000,2.00000,2.00000,-4.69845,-5.09026,0.00000,0.00000
0.1800,18,240,0,0,0.01002,0.01113,0.02510,0.03064,0.70003,0.70172,0.70001,0.70383,0.00000,0.00000,2.00000,2.00000,-4.71083,-5.08624,0.00000,0.00000
0.1900,19,240,0,0,0.01025,0.01115,0.02626,0.03077,0.69799,0.70278,0.69889,0.70021,0.00000,0.00000,2.00000,2.00000,-4.71918,-5.06758,0.00000,0.00000
0.2000,20,240,0,0,0.01025,0.01125,0.02623,0.03126,0.69593,0.70231,0.70036,0.69863,0.00000,0.00000,2.00000,2.00000,-4.72641,-5.05903,0.00000,0.00000
0.2100,21,240,0,0,0.01049,0.01082,0.02746,0.02908,0.69454,0.70091,0.69938,0.69931,0.00000,0.00000,2.00000,2.00000,-4.73074,-5.04863,0.00000,0.00000
0.2200,22,240,0,0,0.01068,0.01071,0.02838,0.02855,0.69589,0.70081,0.69836,0.69940,0.00000,0.00000,2.00000,2.00000,-4.73681,-5.03705,0.00000,0.00000
0.2300,23,240,0,0,0.01062,0.01036,0.02810,0.02678,0.69456,0.70052,0.69647,0.69720,0.00000,0.00000,2.00000,2.00000,-4.73529,-5.04308,0.00000,0.00000
0.2400,24,240,0,0,0.01067,0.01064,0.02836,0.02822,0.69559,0.70118,0.70129,0.69821,0.00000,0.00000,2.00000,2.00000,-4.75811,-5.04836,0.00000,0.00000
0.2500,25,240,0,0,0.01069,0.01091,0.02843,0.02953,0.69622,0.70032,0.69780,0.69786,0.00000,0.00000,2.00000,2.00000,-4.77548,-5.05386,0.00000,0.00000
0.2600,26,240,0,0,0.01047,0.01067,0.02733,0.02833,0.69802,0.69945,0.69645,0.70234,0.00000,0.00000,2.00000,2.00000,-4.77836,-5.06360,0.00000,0.00000
0.2700,27,240,0,0,0.01014,0.01094,0.02572,0.02968,0.69875,0.70067,0.69975,0.70077,0.00000,0.00000,2.00000,2.00000,-4.78219,-5.06970,0.00000,0.00000
0.2800,28,240,0,0,0.01025,0.01063,0.02623,0.02817,0.69725,0.70160,0.70104,0.70033,0.00000,0.00000,2.00000,2.00000,-4.78462,-5.06992,0.00000,0.00000
0.2900,29,240,0,0,0.01024,0.01091,0.02620,0.02954,0.69827,0.70393,0.70170,0.70047,0.00000,0.00000,2.00000,2.00000,-4.79997,-5.07712,0.00000,0.00000
0.3000,30,240,0,0,0.01026,0.01067,0.02630,0.02837,0.70002,0.70095,0.69907,0.70074,0.00000,0.00000,2.00000,2.00000,-4.80586,-5.06287,0.00000,0.00000
0.3100,31,240,0,0,0.00987,0.01083,0.02436,0.02915,0.69822,0.70101,0.69866,0.69977,0.00000,0.00000,2.00000,2.00000,-4.80129,-5.06390,0.00000,0.00000
0.3200,32,240,0,0,0.01013,0.01066,0.02564,0.02830,0.69617,0.69952,0.69905,0.70184,0.00000,0.00000,2.00000,2.00000,-4.78171,-5.05748,0.00000,0.00000
0.3300,33,240,0,0,0.01021,0.01051,0.02603,0.02755,0.69534,0.70172,0.69929,0.70135,0.00000,0.00000,2.00000,2.00000,-4.77492,-5.05033,0.00000,0.00000
0.3400,34,240,0,0,0.01019,0.01086,0.02596,0.02929,0.69632,0.70172,0.69775,0.70024,0.00000,0.00000,2.00000,2.00000,-4.76148,-5.05515,0.00000,0.00000
0.3500,35,240,0,0,0.01041,0.01076,0.02707,0.02878,0.69832,0.70294,0.69772,0.69894,0.00000,0.00000,2.00000,2.00000,-4.76142,-5.05922,0.00000,0.00000
0.3600,36,240,0,0,0.01024,0.01109,0.02621,0.03044,0.69811,0.70204,0.69855,0.69963,0.00000,0.00000,2.00000,2.00000,-4.76420,-5.07201,0.00000,0.00000
0.3700,37,240,0,0,0.01041,0.01057,0.02706,0.02787,0.69805,0.69969,0.69979,0.69954,0.00000,0.00000,2.00000,2.00000,-4.77167,-5.07234,0.00000,0.00000
0.3800,38,240,0,0,0.01096,0.01060,0.02982,0.02802,0.69962,0.69594,0.70146,0.70095,0.00000,0.00000,2.00000,2.00000,-4.77710,-5.05005,0.00000,0.00000
0.3900,39,240,0,0,0.01099,0.01041,0.02996,0.02707,0.70208,0.69773,0.70158,0.70056,0.00000,0.00000,2.00000,2.00000,-4.78089,-5.03357,0.00000,0.00000
0.4000,40,240,0,0,0.01123,0.01012,0.03113,0.02559,0.69940,0.69914,0.70056,0.70048,0.00000,0.00000,2.00000,2.00000,-4.80165,-5.02574,0.00000,0.00000
0.4100,41,240,0,0,0.01078,0.01006,0.02890,0.02532,0.70092,0.69886,0.70550,0.69826,0.00000,0.00000,2.00000,2.00000,-4.82005,-5.00594,0.00000,0.00000
0.4200,42,240,0,0,0.01072,0.01006,0.02858,0.02528,0.70108,0.70197,0.70543,0.69762,0.00000,0.00000,2.00000,2.00000,-4.82826,-4.99106,0.00000,0.00000
0.4300,43,240,0,0,0.01110,0.01029,0.03050,0.02647,0.70242,0.70018,0.70567,0.69725,0.00000,0.00000,2.00000,2.00000,-4.84308,-4.97929,0.00000,0.00000
0.4400,44,240,0,0,0.01067,0.01013,0.02837,0.02563,0.70007,0.69959,0.70195,0.69961,0.00000,0.00000,2.00000,2.00000,-4.86376,-4.97960,0.00000,0.00000
0.4500,45,240,0,0,0.01044,0.01003,0.02718,0.02517,0.69972,0.70027,0.69919,0.70439,0.00000,0.00000,2.00000,2.00000,-4.86458,-4.97486,0.00000,0.00000
0.4600,46,240,0,0,0.01088,0.00996,0.02939,0.02481,0.69826,0.70098,0.69950,0.69964,0.00000,0.00000,2.00000,2.00000,-4.86897,-4.96989,0.00000,0.00000
0.4700,47,240,0,0,0.01111,0.01057,0.03054,0.02785,0.69727,0.70053,0.69930,0.69894,0.00000,0.00000,2.00000,2.00000,-4.86797,-4.97592,0.00000,0.00000
0.4800,48,240,0,0,0.01051,0.01052,0.02753,0.02760,0.69809,0.69943,0.69776,0.69795,0.00000,0.00000,2.00000,2.00000,-4.87762,-4.97800,0.00000,0.00000
0.4900,49,240,0,0,0.01066,0.01069,0.02829,0.02846,0.69708,0.69863,0.69901,0.69720,0.00000,0.00000,2.00000,2.00000,-4.87340,-4.95883,0.00000,0.00000
0.5000,50,240,0,0,0.01008,0.01072,0.02539,0.02861,0.69711,0.69786,0.70112,0.69740,0.00000,0.00000,2.00000,2.00000,-4.87124,-4.94818,0.00000,0.00000
0.5100,51,240,0,0,0.01032,0.01053,0.02658,0.02767,0.70019,0.69769,0.70270,0.69959,0.00000,0.00000,2.00000,2.00000,-4.86503,-4.94056,0.00000,0.00000
0.5200,52,240,0,0,0.01066,0.01080,0.02831,0.02899,0.69887,0.70014,0.70252,0.70004,0.00000,0.00000,2.00000,2.00000,-4.84934,-4.95245,0.00000,0.00000
0.5300,53,240,0,0,0.01072,0.01058,0.02862,0.02789,0.69861,0.70002,0.69993,0.69865,0.00000,0.00000,2.00000,2.00000,-4.84227,-4.94902,0.00000,0.00000
0.5400,54,240,0,0,0.01090,0.01076,0.02948,0.02878,0.69920,0.70326,0.70092,0.70009,0.00000,0.00000,2.00000,2.00000,-4.84174,-4.94958,0.00000,0.00000
0.5500,55,240,0,0,0.01070,0.01059,0.02851,0.02796,0.69619,0.70499,0.69917,0.69952,0.00000,0.00000,2.00000,2.00000,-4.83126,-4.93916,0.00000,0.00000
0.5600,56,240,0,0,0.01105,0.01038,0.03027,0.02692,0.69648,0.70470,0.70006,0.70067,0.00000,0.00000,2.00000,2.00000,-4.82546,-4.93930,0.00000,0.00000
0.5700,57,240,0,0,0.01098,0.01038,0.02990,0.02692,0.69839,0.70374,0.69767,0.70068,0.00000,0.00000,2.00000,2.00000,-4.82978,-4.93750,0.00000,0.00000
0.5800,58,240,0,0,0.01087,0.01092,0.02933,0.02958,0.69727,0.70390,0.69933,0.70005,0.00000,0.00000,2.00000,2.00000,-4.81709,-4.92600,0.00000,0.00000
0.5900,59,240,0,0,0.01057,0.01098,0.02787,0.02992,0.69822,0.70242,0.69908,0.69835,0.00000,0.00000,2.00000,2.00000,-4.81382,-4.91035,0.00000,0.00000
0.6000,60,240,0,0,0.01046,0.01108,0.02728,0.03039,0.69987,0.70056,0.70184,0.69950,0.00000,0.00000,2.00000,2.00000,-4.80860,-4.90075,0.00000,0.00000
0.6100,61,240,0,0,0.01036,0.01072,0.02679,0.02858,0.69848,0.69982,0.69988,0.70121,0.00000,0.00000,2.00000,2.00000,-4.80874,-4.88711,0.00000,0.00000
0.6200,62,240,0,0,0.01048,0.01086,0.02740,0.02929,0.69849,0.69537,0.70341,0.69927,0.00000,0.00000,2.00000,2.00000,-4.80899,-4.88558,0.00000,0.00000
0.6300,63,240,0,0,0.01027,0.01104,0.02634,0.03022,0.69606,0.69686,0.70363,0.70093,0.00000,0.00000,2.00000,2.00000,-4.81527,-4.89962,0.00000,0.00000
0.6400,64,240,0,0,0.01050,0.01058,0.02750,0.02789,0.69701,0.69578,0.70261,0.70369,0.00000,0.00000,2.00000,2.00000,-4.81716,-4.88696,0.00000,0.00000
0.6500,65,240,0,0,0.01076,0.01078,0.02880,0.02890,0.69428,0.69676,0.70123,0.70290,0.00000,0.00000,2.00000,2.00000,-4.81861,-4.89900,0.00000,0.00000
0.6600,66,240,0,0,0.01013,0.01035,0.02566,0.02673,0.69975,0.69866,0.70113,0.70198,0.00000,0.00000,2.00000,2.00000,-4.81768,-4.89714,0.00000,0.00000
0.6700,67,240,0,0,0.01028,0.01050,0.02639,0.02752,0.69876,0.69848,0.70332,0.70269,0.00000,0.00000,2.00000,2.00000,-4.81209,-4.90178,0.00000,0.00000
0.6800,68,240,0,0,0.01040,0.01048,0.02700,0.02741,0.70358,0.69643,0.70012,0.70138,0.00000,0.00000,2.00000,2.00000,-4.80571,-4.89744,0.00000,0.00000
0.6900,69,240,0,0,0.01025,0.01046,0.02625,0.02728,0.70128,0.69714,0.70151,0.70138,0.00000,0.00000,2.00000,2.00000,-4.79090,-4.88241,0.00000,0.00000
0.7000,70,240,0,0,0.01025,0.01015,0.02625,0.02577,0.69935,0.69279,0.70256,0.70207,0.00000,0.00000,2.00000,2.00000,-4.77260,-4.86567,0.00000,0.00000
0.7100,71,240,0,0,0.01037,0.01009,0.02685,0.02546,0.70159,0.69456,0.70195,0.70029,0.00000,0.00000,2.00000,2.00000,-4.77655,-4.85431,0.00000,0.00000
0.7200,72,240,0,0,0.01062,0.01013,0.02810,0.02567,0.70044,0.69590,0.70000,0.70216,0.00000,0.00000,2.00000,2.00000,-4.77338,-4.84932,0.00000,0.00000
0.7300,73,240,0,0,0.01057,0.00999,0.02785,0.02497,0.70002,0.69595,0.70078,0.70066,0.00000,0.00000,2.00000,2.00000,-4.78713,-4.84757,0.00000,0.00000
0.7400,74,240,0,0,0.01077,0.00992,0.02884,0.02458,0.70153,0.69706,0.69978,0.70150,0.00000,0.00000,2.00000,2.00000,-4.79569,-4.85730,0.00000,0.00000
0.7500,75,240,0,0,0.01078,0.01006,0.02888,0.02529,0.70186,0.69770,0.69852,0.70216,0.00000,0.00000,2.00000,2.00000,-4.80010,-4.85142,0.00000,0.00000
0.7600,76,240,0,0,0.01056,0.01029,0.02781,0.02646,0.69946,0.70053,0.69811,0.69809,0.00000,0.00000,2.00000,2.00000,-4.81027,-4.86269,0.00000,0.00000
0.7700,77,240,0,0,0.01035,0.01041,0.02675,0.02706,0.70013,0.70086,0.70045,0.70242,0.00000,0.00000,2.00000,2.00000,-4.82077,-4.86129,0.00000,0.00000
0.7800,78,240,0,0,0.01003,0.01022,0.02517,0.02612,0.70291,0.69884,0.70008,0.70423,0.00000,0.00000,2.00000,2.00000,-4.83136,-4.87433,0.00000,0.00000
0.7900,79,240,0,0,0.01026,0.01032,0.02631,0.02661,0.70066,0.70047,0.70006,0.70506,0.00000,0.00000,2.00000,2.00000,-4.84319,-4.88106,0.00000,0.00000
0.8000,80,240,0,0,0.01048,0.00991,0.02740,0.02455,0.70066,0.70007,0.69987,0.70361,0.00000,0.00000,2.00000,2.00000,-4.84040,-4.88103,0.00000,0.00000
0.8100,81,240,0,0,0.01053,0.00987,0.02765,0.02434,0.69892,0.69946,0.69934,0.70092,0.00000,0.00000,2.00000,2.00000,-4.85773,-4.87934,0.00000,0.00000
0.8200,82,240,0,0,0.01022,0.01001,0.02609,0.02503,0.69824,0.69955,0.69707,0.70334,0.00000,0.00000,2.00000,2.00000,-4.87124,-4.88398,0.00000,0.00000
0.8300,83,240,0,0,0.01055,0.01029,0.02773,0.02643,0.69918,0.69923,0.69641,0.69994,0.00000,0.00000,2.00000,2.00000,-4.88698,-4.88447,0.00000,0.00000
0.8400,84,240,0,0,0.01051,0.01051,0.02755,0.02756,0.70348,0.70264,0.69878,0.69973,0.00000,0.00000,2.00000,2.00000,-4.89235,-4.86701,0.00000,0.00000
0.8500,85,240,0,0,0.01057,0.01042,0.02787,0.02712,0.70214,0.69921,0.69714,0.70017,0.00000,0.00000,2.00000,2.00000,-4.90891,-4.86890,0.00000,0.00000
0.8600,86,240,0,0,0.01053,0.00988,0.02766,0.02440,0.70059,0.70234,0.69985,0.69986,0.00000,0.00000,2.00000,2.00000,-4.91138,-4.87694,0.00000,0.00000
0.8700,87,240,0,0,0.01064,0.00975,0.02819,0.02373,0.70102,0.70200,0.70022,0.69895,0.00000,0.00000,2.00000,2.00000,-4.91884,-4.88898,0.00000,0.00000
0.8800,88,240,0,0,0.01085,0.01001,0.02926,0.02507,0.70116,0.70300,0.70056,0.69666,0.00000,0.00000,2.00000,2.00000,-4.92018,-4.88725,0.00000,0.00000
0.8900,89,240,0,0,0.01053,0.01003,0.02763,0.02516,0.70378,0.70225,0.70129,0.69493,0.00000,0.00000,2.00000,2.00000,-4.92578,-4.88641,0.00000,0.00000
0.9000,90,240,0,0,0.01045,0.00969,0.02724,0.02346,0.70201,0.70050,0.70389,0.69591,0.00000,0.00000,2.00000,2.00000,-4.92569,-4.88049,0.00000,0.00000
0.9100,91,240,0,0,0.01056,0.01012,0.02781,0.02559,0.70008,0.69934,0.70455,0.69795,0.00000,0.00000,2.00000,2.00000,-4.92580,-4.88740,0.00000,0.00000
0.9200,92,240,0,0,0.01040,0.00997,0.02702,0.02487,0.70077,0.70141,0.70372,0.69874,0.00000,0.00000,2.00000,2.00000,-4.93710,-4.89759,0.00000,0.00000
0.9300,93,240,0,0,0.01047,0.01015,0.02737,0.02573,0.69732,0.70134,0.70362,0.69987,0.00000,0.00000,2.00000,2.00000,-4.96051,-4.89469,0.00000,0.00000
0.9400,94,240,0,0,0.01052,0.01018,0.02761,0.02590,0.69861,0.70150,0.70226,0.69979,0.00000,0.00000,2.00000,2.00000,-4.96181,-4.89836,0.00000,0.00000
0.9500,95,240,0,0,0.01050,0.01024,0.02751,0.02621,0.69915,0.70100,0.69941,0.70084,0.00000,0.00000,2.00000,2.00000,-4.97233,-4.90931,0.00000,0.00000
0.9600,96,240,0,0,0.01053,0.01019,0.02767,0.02597,0.69963,0.69927,0.69724,0.69926,0.00000,0.00000,2.00000,2.00000,-4.98887,-4.91207,0.00000,0.00000
0.9700,97,240,0,0,0.01039,0.01020,0.02695,0.02600,0.69912,0.69845,0.69722,0.70107,0.00000,0.00000,2.00000,2.00000,-4.99864,-4.91682,0.00000,0.00000
0.9800,98,240,0,0,0.01067,0.00994,0.02837,0.02469,0.69683,0.69955,0.69691,0.70348,0.00000,0.00000,2.00000,2.00000,-5.00296,-4.91986,0.00000,0.00000
0.9900,99,240,0,0,0.01104,0.01006,0.03021,0.02530,0.69576,0.69816,0.69675,0.70346,0.00000,0.00000,2.00000,2.00000,-4.98859,-4.91747,0.00000,0.00000
1.0000,100,240,0,0,0.01090,0.01017,0.02950,0.02587,0.69623,0.69543,0.69862,0.70164,0.00000,0.00000,2.00000,2.00000,-4.98685,-4.92600,0.00000,0.00000
1.0100,101,240,0,0,0.01074,0.01016,0.02868,0.02578,0.69883,0.69591,0.69647,0.70080,0.00000,0.00000,2.00000,2.00000,-4.98335,-4.91383,0.00000,0.00000
1.0200,102,240,0,0,0.01042,0.00979,0.02710,0.02397,0.69995,0.69454,0.69593,0.70300,0.00000,0.00000,2.00000,2.00000,-4.98423,-4.90553,0.00000,0.00000
1.0300,103,240,0,0,0.01064,0.00998,0.02818,0.02490,0.69727,0.69468,0.69615,0.70325,0.00000,0.00000,2.00000,2.00000,-4.97063,-4.90084,0.00000,0.00000
1.0400,104,240,0,0,0.01007,0.01007,0.02533,0.02533,0.70079,0.69505,0.69452,0.70056,0.00000,0.00000,2.00000,2.00000,-4.96618,-4.89863,0.00000,0.00000
1.0500,105,240,0,0,0.01000,0.00999,0.02502,0.02493,0.69931,0.69692,0.69408,0.70114,0.00000,0.00000,2.00000,2.00000,-4.96795,-4.89882,0.00000,0.00000
1.0600,106,240,0,0,0.01029,0.01033,0.02646,0.02666,0.69873,0.69767,0.69455,0.69843,0.00000,0.00000,2.00000,2.00000,-4.97019,-4.89902,0.00000,0.00000
1.0700,107,240,0,0,0.01018,0.01004,0.02592,0.02521,0.69889,0.69783,0.69533,0.70072,0.00000,0.00000,2.00000,2.00000,-4.98178,-4.89296,0.00000,0.00000
1.0800,108,240,0,0,0.01060,0.00994,0.02799,0.02471,0.70101,0.69522,0.69516,0.70072,0.00000,0.00000,2.00000,2.00000,-4.98808,-4.89141,0.00000,0.00000
1.0900,109,240,0,0,0.01054,0.00995,0.02769,0.02473,0.69867,0.69852,0.69736,0.70255,0.00000,0.00000,2.00000,2.00000,-5.00988,-4.89262,0.00000,0.00000
1.1000,110,240,0,0,0.01018,0.00960,0.02588,0.02302,0.69673,0.70015,0.69574,0.70378,0.00000,0.00000,2.00000,2.00000,-4.99634,-4.89717,0.00000,0.00000
1.1100,111,240,0,0,0.01009,0.00971,0.02543,0.02356,0.70084,0.69993,0.69319,0.70154,0.00000,0.00000,2.00000,2.00000,-4.99723,-4.89630,0.00000,0.00000
1.1200,112,240,0,0,0.01043,0.00961,0.02713,0.02307,0.70025,0.69938,0.69643,0.70309,0.00000,0.00000,2.00000,2.00000,-4.99771,-4.89625,0.00000,0.00000
1.1300,113,240,0,0,0.01092,0.01004,0.02960,0.02522,0.69846,0.69812,0.69441,0.70503,0.00000,0.00000,2.00000,2.00000,-4.98564,-4.89233,0.00000,0.00000
1.1400,114,240,0,0,0.01093,0.01026,0.02967,0.02630,0.69692,0.69862,0.69834,0.70307,0.00000,0.00000,2.00000,2.00000,-4.98865,-4.88418,0.00000,0.00000
1.1500,115,240,0,0,0.01071,0.01055,0.02857,0.02774,0.69865,0.70104,0.69864,0.70090,0.00000,0.00000,2.00000,2.00000,-4.98100,-4.87653,0.00000,0.00000
1.1600,116,240,0,0,0.01076,0.01011,0.02881,0.02557,0.70137,0.69765,0.69699,0.70222,0.00000,0.00000,2.00000,2.00000,-4.97352,-4.87788,0.00000,0.00000
1.1700,117,240,0,0,0.01014,0.01033,0.02571,0.02664,0.70212,0.69930,0.69947,0.70079,0.00000,0.00000,2.00000,2.00000,-4.97019,-4.87028,0.00000,0.00000
1.1800,118,240,0,0,0.01041,0.01063,0.02707,0.02817,0.70011,0.69925,0.69814,0.69878,0.00000,0.00000,2.00000,2.00000,-4.96303,-4.86565,0.00000,0.00000
1.1900,119,240,0,0,0.01024,0.01050,0.02618,0.02748,0.69763,0.70283,0.69949,0.70039,0.00000,0.00000,2.00000,2.00000,-4.94998,-4.86858,0.00000,0.00000
1.2000,120,240,0,0,0.01008,0.01064,0.02541,0.02822,0.70209,0.70328,0.69703,0.69925,0.00000,0.00000,2.00000,2.00000,-4.95435,-4.88248,0.00000,0.00000
1.2100,121,240,0,0,0.01012,0.01051,0.02559,0.02756,0.69944,0.70416,0.70085,0.70082,0.00000,0.00000,2.00000,2.00000,-4.95370,-4.88587,0.00000,0.00000
1.2200,122,240,0,0,0.01026,0.00996,0.02632,0.02479,0.69872,0.70043,0.70137,0.70048,0.00000,0.00000,2.00000,2.00000,-4.95122,-4.88281,0.00000,0.00000
1.2300,123,240,0,0,0.01037,0.01012,0.02685,0.02560,0.69859,0.69879,0.70114,0.69936,0.00000,0.00000,2.00000,2.00000,-4.94545,-4.88149,0.00000,0.00000
1.2400,124,240,0,0,0.01019,0.01008,0.02594,0.02538,0.69617,0.69905,0.70176,0.69958,0.00000,0.00000,2.00000,2.00000,-4.94776,-4.87993,0.00000,0.00000
1.2500,125,240,0,0,0.01061,0.01021,0.02807,0.02607,0.69825,0.70028,0.70310,0.69775,0.00000,0.00000,2.00000,2.00000,-4.94733,-4.87345,0.00000,0.00000
1.2600,126,240,0,0,0.01046,0.00995,0.02728,0.02475,0.69924,0.70195,0.69979,0.69602,0.00000,0.00000,2.00000,2.00000,-4.94314,-4.86853,0.00000,0.00000
1.2700,127,240,0,0,0.01041,0.00995,0.02705,0.02475,0.69855,0.70330,0.69974,0.69695,0.00000,0.00000,2.00000,2.00000,-4.93050,-4.87279,0.00000,0.00000
1.2800,128,240,0,0,0.01033,0.00993,0.02666,0.02467,0.69906,0.70350,0.69874,0.69931,0.00000,0.00000,2.00000,2.00000,-4.93084,-4.87873,0.00000,0.00000
1.2900,129,240,0,0,0.01002,0.01018,0.02509,0.02588,0.69779,0.70404,0.69844,0.69817,0.00000,0.00000,2.00000,2.00000,-4.93110,-4.86635,0.00000,0.00000
1.3000,130,240,0,0,0.00996,0.01036,0.02478,0.02680,0.69922,0.70125,0.69857,0.69911,0.00000,0.00000,2.00000,2.00000,-4.92042,-4.88112,0.00000,0.00000
1.3100,131,240,0,0,0.01004,0.01035,0.02521,0.02673,0.70090,0.69776,0.69782,0.69929,0.00000,0.00000,2.00000,2.00000,-4.91640,-4.89098,0.00000,0.00000
1.3200,132,240,0,0,0.01051,0.01088,0.02756,0.02940,0.70091,0.69684,0.70005,0.70226,0.00000,0.00000,2.00000,2.00000,-4.91799,-4.88390,0.00000,0.00000
1.3300,133,240,0,0,0.01042,0.01054,0.02711,0.02768,0.70012,0.69636,0.70110,0.70260,0.00000,0.00000,2.00000,2.00000,-4.91483,-4.90032,0.00000,0.00000
1.3400,134,240,0,0,0.00966,0.01041,0.02329,0.02705,0.70060,0.69581,0.70020,0.70367,0.00000,0.00000,2.00000,2.00000,-4.91466,-4.90335,0.00000,0.00000
1.3500,135,240,0,0,0.01014,0.01047,0.02572,0.02733,0.70072,0.69736,0.70316,0.70116,0.00000,0.00000,2.00000,2.00000,-4.90419,-4.90041,0.00000,0.00000
1.3600,136,240,0,0,0.01061,0.01011,0.02805,0.02553,0.70024,0.69678,0.70175,0.70289,0.00000,0.00000,2.00000,2.00000,-4.89786,-4.90385,0.00000,0.00000
1.3700,137,240,0,0,0.01056,0.01026,0.02781,0.02631,0.69858,0.69859,0.69853,0.70107,0.00000,0.00000,2.00000,2.00000,-4.89477,-4.91561,0.00000,0.00000
1.3800,138,240,0,0,0.01024,0.01043,0.02621,0.02715,0.69779,0.70098,0.70083,0.70180,0.00000,0.00000,2.00000,2.00000,-4.89975,-4.91243,0.00000,0.00000
1.3900,139,240,0,0,0.01055,0.01046,0.02773,0.02729,0.69905,0.69933,0.70123,0.70136,0.00000,0.00000,2.00000,2.00000,-4.90433,-4.91515,0.00000,0.00000
1.4000,140,240,0,0,0.01027,0.01063,0.02635,0.02813,0.70248,0.69762,0.70130,0.70054,0.00000,0.00000,2.00000,2.00000,-4.90042,-4.90931,0.00000,0.00000
1.4100,141,240,0,0,0.01036,0.01049,0.02682,0.02747,0.70282,0.70139,0.70085,0.70007,0.00000,0.00000,2.00000,2.00000,-4.90453,-4.90190,0.00000,0.00000
1.4200,142,240,0,0,0.01035,0.01041,0.02677,0.02707,0.70252,0.70278,0.70304,0.70023,0.00000,0.00000,2.00000,2.00000,-4.90722,-4.91152,0.00000,0.00000
1.4300,143,240,0,0,0.01054,0.01052,0.02768,0.02758,0.70003,0.69997,0.69820,0.69889,0.00000,0.00000,2.00000,2.00000,-4.90567,-4.90883,0.00000,0.00000
1.4400,144,240,0,0,0.01073,0.01011,0.02866,0.02557,0.69811,0.70293,0.69513,0.69830,0.00000,0.00000,2.00000,2.00000,-4.90316,-4.90778,0.00000,0.00000
1.4500,145,240,0,0,0.01110,0.01000,0.03050,0.02502,0.69527,0.70349,0.69647,0.70206,0.00000,0.00000,2.00000,2.00000,-4.90800,-4.91065,0.00000,0.00000
1.4600,146,240,0,0,0.01111,0.01013,0.03056,0.02564,0.69689,0.70459,0.69759,0.69783,0.00000,0.00000,2.00000,2.00000,-4.90564,-4.89749,0.00000,0.00000
1.4700,147,240,0,0,0.01075,0.01008,0.02875,0.02542,0.69884,0.70190,0.69817,0.70088,0.00000,0.00000,2.00000,2.00000,-4.90446,-4.88877,0.00000,0.00000
1.4800,148,240,0,0,0.01062,0.01053,0.02812,0.02764,0.69967,0.70378,0.69686,0.69932,0.00000,0.00000,2.00000,2.00000,-4.91286,-4.88153,0.00000,0.00000
1.4900,149,240,0,0,0.01039,0.01059,0.02693,0.02795,0.70298,0.69889,0.69717,0.69837,0.00000,0.00000,2.00000,2.00000,-4.90406,-4.89188,0.00000,0.00000
1.5000,150,240,0,0,0.01055,0.01065,0.02775,0.02823,0.70224,0.69880,0.69967,0.69865,0.00000,0.00000,2.00000,2.00000,-4.90777,-4.90003,0.00000,0.00000
1.5100,151,240,0,0,0.01061,0.01052,0.02806,0.02759,0.70183,0.69860,0.69862,0.69991,0.00000,0.00000,2.00000,2.00000,-4.91352,-4.90363,0.00000,0.00000
1.5200,152,240,0,0,0.01054,0.01048,0.02769,0.02742,0.70178,0.70136,0.69989,0.70121,0.00000,0.00000,2.00000,2.00000,-4.90381,-4.90943,0.00000,0.00000
1.5300,153,240,0,0,0.01017,0.01052,0.02586,0.02761,0.70219,0.70356,0.69841,0.70258,0.00000,0.00000,2.00000,2.00000,-4.91172,-4.91818,0.00000,0.00000
1.5400,154,240,0,0,0.01056,0.01073,0.02782,0.02865,0.70198,0.70347,0.69962,0.70285,0.00000,0.00000,2.00000,2.00000,-4.92553,-4.93197,0.00000,0.00000
1.5500,155,240,0,0,0.01071,0.01061,0.02857,0.02805,0.70237,0.70615,0.69688,0.70107,0.00000,0.00000,2.00000,2.00000,-4.94275,-4.94079,0.00000,0.00000
1.5600,156,240,0,0,0.01078,0.01027,0.02890,0.02633,0.70207,0.70579,0.69819,0.70213,0.00000,0.00000,2.00000,2.00000,-4.93874,-4.95397,0.00000,0.00000
1.5700,157,240,0,0,0.01070,0.01063,0.02849,0.02815,0.70286,0.70540,0.69992,0.70036,0.00000,0.00000,2.00000,2.00000,-4.93864,-4.95115,0.00000,0.00000
1.5800,158,240,0,0,0.01095,0.01076,0.02977,0.02880,0.69945,0.70305,0.69938,0.70044,0.00000,0.00000,2.00000,2.00000,-4.93907,-4.94952,0.00000,0.00000
1.5900,159,240,0,0,0.01076,0.01046,0.02881,0.02728,0.69959,0.70064,0.69717,0.70135,0.00000,0.00000,2.00000,2.00000,-4.92819,-4.95000,0.00000,0.00000
1.6000,160,240,0,0,0.01090,0.01055,0.02950,0.02773,0.69773,0.70199,0.69677,0.69971,0.00000,0.00000,2.00000,2.00000,-4.93390,-4.94327,0.00000,0.00000
1.6100,161,240,0,0,0.01091,0.01074,0.02957,0.02869,0.69679,0.70291,0.69703,0.69750,0.00000,0.00000,2.00000,2.00000,-4.94163,-4.95126,0.00000,0.00000
1.6200,162,240,0,0,0.01072,0.01048,0.02860,0.02742,0.69921,0.70000,0.69676,0.69604,0.00000,0.00000,2.00000,2.00000,-4.94469,-4.95074,0.00000,0.00000
1.6300,163,240,0,0,0.01082,0.01040,0.02912,0.02699,0.69860,0.69826,0.69480,0.69493,0.00000,0.00000,2.00000,2.00000,-4.94192,-4.96034,0.00000,0.00000
1.6400,164,240,0,0,0.01053,0.01046,0.02765,0.02730,0.70189,0.69912,0.69572,0.69748,0.00000,0.00000,2.00000,2.00000,-4.95327,-4.97445,0.00000,0.00000
1.6500,165,240,0,0,0.01066,0.01047,0.02830,0.02733,0.69948,0.69814,0.69507,0.69625,0.00000,0.00000,2.00000,2.00000,-4.95659,-4.97715,0.00000,0.00000
1.6600,166,240,0,0,0.01060,0.01013,0.02802,0.02566,0.70023,0.69587,0.69545,0.69452,0.00000,0.00000,2.00000,2.00000,-4.96198,-4.98410,0.00000,0.00000
1.6700,167,240,0,0,0.01077,0.00999,0.02887,0.02495,0.70288,0.69418,0.69639,0.69564,0.00000,0.00000,2.00000,2.00000,-4.96955,-4.98303,0.00000,0.00000
1.6800,168,240,0,0,0.01088,0.00989,0.02941,0.02443,0.70034,0.69619,0.69686,0.70042,0.00000,0.00000,2.00000,2.00000,-4.97530,-4.97779,0.00000,0.00000
1.6900,169,240,0,0,0.01084,0.01017,0.02921,0.02586,0.70019,0.69791,0.69506,0.69890,0.00000,0.00000,2.00000,2.00000,-4.97115,-4.98261,0.00000,0.00000
1.7000,170,240,0,0,0.01102,0.01007,0.03010,0.02533,0.69876,0.69854,0.69532,0.70082,0.00000,0.00000,2.00000,2.00000,-4.95854,-4.99254,0.00000,0.00000
1.7100,171,240,0,0,0.01070,0.01052,0.02849,0.02761,0.69853,0.69588,0.69677,0.69759,0.00000,0.00000,2.00000,2.00000,-4.94829,-5.01015,0.00000,0.00000
1.7200,172,240,0,0,0.01055,0.01003,0.02775,0.02515,0.70001,0.69467,0.69864,0.69626,0.00000,0.00000,2.00000,2.00000,-4.94834,-5.03396,0.00000,0.00000
1.7300,173,240,0,0,0.01079,0.01074,0.02896,0.02869,0.70201,0.69753,0.70031,0.70119,0.00000,0.00000,2.00000,2.00000,-4.94342,-5.05914,0.00000,0.00000
1.7400,174,240,0,0,0.01026,0.01058,0.02629,0.02790,0.70097,0.69692,0.70027,0.69744,0.00000,0.00000,2.00000,2.00000,-4.92719,-5.06782,0.00000,0.00000
1.7500,175,240,0,0,0.01038,0.01067,0.02688,0.02835,0.69992,0.69878,0.69466,0.69863,0.00000,0.00000,2.00000,2.00000,-4.92297,-5.08077,0.00000,0.00000
1.7600,176,240,0,0,0.01031,0.01059,0.02655,0.02796,0.70173,0.70064,0.69465,0.69847,0.00000,0.00000,2.00000,2.00000,-4.92412,-5.10248,0.00000,0.00000
1.7700,177,240,0,0,0.01041,0.01066,0.02704,0.02830,0.69759,0.69777,0.69758,0.69982,0.00000,0.00000,2.00000,2.00000,-4.92286,-5.11608,0.00000,0.00000
1.7800,178,240,0,0,0.01021,0.01053,0.02605,0.02763,0.70104,0.70058,0.69766,0.70249,0.00000,0.00000,2.00000,2.00000,-4.90170,-5.12983,0.00000,0.00000
1.7900,179,240,0,0,0.01055,0.01044,0.02774,0.02722,0.70040,0.70165,0.69774,0.70045,0.00000,0.00000,2.00000,2.00000,-4.89043,-5.12841,0.00000,0.00000
1.8000,180,240,0,0,0.01042,0.01035,0.02709,0.02676,0.70033,0.69999,0.69753,0.69777,0.00000,0.00000,2.00000,2.00000,-4.88948,-5.13042,0.00000,0.00000
1.8100,181,240,0,0,0.01080,0.01044,0.02898,0.02719,0.70105,0.70048,0.69667,0.69869,0.00000,0.00000,2.00000,2.00000,-4.87608,-5.11887,0.00000,0.00000
1.8200,182,240,0,0,0.01073,0.01034,0.02867,0.02672,0.70012,0.69979,0.69811,0.69811,0.00000,0.00000,2.00000,2.00000,-4.88022,-5.10837,0.00000,0.00000
1.8300,183,240,0,0,0.01071,0.01028,0.02854,0.02641,0.69922,0.70136,0.70065,0.69864,0.00000,0.00000,2.00000,2.00000,-4.87354,-5.10584,0.00000,0.00000
1.8400,184,240,0,0,0.01017,0.01029,0.02584,0.02646,0.70060,0.69968,0.70018,0.69892,0.00000,0.00000,2.00000,2.00000,-4.86320,-5.11175,0.00000,0.00000
1.8500,185,240,0,0,0.01052,0.00995,0.02762,0.02477,0.69896,0.70016,0.70132,0.69975,0.00000,0.00000,2.00000,2.00000,-4.86523,-5.11734,0.00000,0.00000
1.8600,186,240,0,0,0.01041,0.01036,0.02706,0.02678,0.70145,0.69822,0.70458,0.70054,0.00000,0.00000,2.00000,2.00000,-4.86314,-5.12134,0.00000,0.00000
1.8700,187,240,0,0,0.01025,0.01057,0.02624,0.02784,0.70532,0.70160,0.70434,0.69947,0.00000,0.00000,2.00000,2.00000,-4.85897,-5.11259,0.00000,0.00000
1.8800,188,240,0,0,0.00985,0.01056,0.02423,0.02780,0.70361,0.70072,0.70237,0.70247,0.00000,0.00000,2.00000,2.00000,-4.84284,-5.10252,0.00000,0.00000
1.8900,189,240,0,0,0.00963,0.01048,0.02313,0.02741,0.70008,0.70121,0.70094,0.70492,0.00000,0.00000,2.00000,2.00000,-4.82656,-5.09338,0.00000,0.00000
1.9000,190,240,0,0,0.01007,0.01045,0.02537,0.02723,0.70273,0.70277,0.69865,0.70447,0.00000,0.00000,2.00000,2.00000,-4.81674,-5.08954,0.00000,0.00000
1.9100,191,240,0,0,0.01038,0.01016,0.02689,0.02581,0.70079,0.70337,0.69756,0.70492,0.00000,0.00000,2.00000,2.00000,-4.80978,-5.07919,0.00000,0.00000
1.9200,192,240,0,0,0.01037,0.01008,0.02687,0.02538,0.69769,0.70095,0.69971,0.70538,0.00000,0.00000,2.00000,2.00000,-4.80763,-5.08053,0.00000,0.00000
1.9300,193,240,0,0,0.01066,0.01034,0.02828,0.02669,0.69935,0.69955,0.70354,0.70255,0.00000,0.00000,2.00000,2.00000,-4.81040,-5.08160,0.00000,0.00000
1.9400,194,240,0,0,0.01036,0.01040,0.02680,0.02701,0.69985,0.70098,0.70237,0.70416,0.00000,0.00000,2.00000,2.00000,-4.82336,-5.07453,0.00000,0.00000
1.9500,195,240,0,0,0.01028,0.01042,0.02638,0.02712,0.69902,0.70179,0.70237,0.70294,0.00000,0.00000,2.00000,2.00000,-4.83502,-5.07974,0.00000,0.00000
1.9600,196,240,0,0,0.01000,0.01032,0.02498,0.02661,0.70049,0.70042,0.70008,0.70310,0.00000,0.00000,2.00000,2.00000,-4.83892,-5.06969,0.00000,0.00000
1.9700,197,240,0,0,0.01013,0.01012,0.02567,0.02562,0.70312,0.69993,0.69851,0.70337,0.00000,0.00000,2.00000,2.00000,-4.84631,-5.07564,0.00000,0.00000
1.9800,198,240,0,0,0.01037,0.01051,0.02684,0.02755,0.70285,0.70161,0.70028,0.70066,0.00000,0.00000,2.00000,2.00000,-4.84720,-5.08508,0.00000,0.00000
1.9900,199,240,0,0,0.01051,0.01066,0.02756,0.02829,0.70026,0.70006,0.69857,0.70000,0.00000,0.00000,2.00000,2.00000,-4.85531,-5.09163,0.00000,0.00000
2.0000,200,240,0,0,0.01041,0.01086,0.02707,0.02928,0.69824,0.70236,0.69850,0.70009,0.00000,0.00000,2.00000,2.00000,-4.85485,-5.09242,0.00000,0.00000
2.0100,201,240,0,0,0.01057,0.01092,0.02787,0.02960,0.69678,0.70151,0.70050,0.69821,0.00000,0.00000,2.00000,2.00000,-4.87327,-5.10154,0.00000,0.00000
2.0200,202,240,0,0,0.01066,0.01069,0.02828,0.02846,0.70088,0.70090,0.70290,0.69961,0.00000,0.00000,2.00000,2.00000,-4.88150,-5.09696,0.00000,0.00000
2.0300,203,240,0,0,0.01042,0.01048,0.02709,0.02740,0.70197,0.70259,0.70225,0.69767,0.00000,0.00000,2.00000,2.00000,-4.87808,-5.10026,0.00000,0.00000
2.0400,204,240,0,0,0.01037,0.01050,0.02687,0.02748,0.70233,0.70517,0.70206,0.70111,0.00000,0.00000,2.00000,2.00000,-4.87710,-5.09448,0.00000,0.00000
2.0500,205,240,0,0,0.01039,0.01073,0.02697,0.02864,0.70088,0.70298,0.70131,0.70134,0.00000,0.00000,2.00000,2.00000,-4.87146,-5.08789,0.00000,0.00000
2.0600,206,240,0,0,0.01025,0.01071,0.02623,0.02856,0.70235,0.70473,0.70033,0.69969,0.00000,0.00000,2.00000,2.00000,-4.88772,-5.08458,0.00000,0.00000
2.0700,207,240,0,0,0.00988,0.01049,0.02439,0.02746,0.70290,0.70263,0.70141,0.69856,0.00000,0.00000,2.00000,2.00000,-4.90272,-5.07364,0.00000,0.00000
2.0800,208,240,0,0,0.01006,0.01054,0.02530,0.02769,0.70432,0.69876,0.70221,0.70145,0.00000,0.00000,2.00000,2.00000,-4.91237,-5.06075,0.00000,0.00000
2.0900,209,240,0,0,0.01015,0.01024,0.02577,0.02619,0.70440,0.69779,0.70021,0.70285,0.00000,0.00000,2.00000,2.00000,-4.91774,-5.07644,0.00000,0.00000
2.1000,210,240,0,0,0.01005,0.01049,0.02525,0.02746,0.70397,0.69895,0.69982,0.69986,0.00000,0.00000,2.00000,2.00000,-4.93320,-5.08499,0.00000,0.00000
2.1100,211,240,0,0,0.01022,0.01054,0.02608,0.02769,0.70195,0.69702,0.69995,0.70269,0.00000,0.00000,2.00000,2.00000,-4.94106,-5.09181,0.00000,0.00000
2.1200,212,240,0,0,0.01041,0.01049,0.02705,0.02747,0.70214,0.69842,0.70183,0.70182,0.00000,0.00000,2.00000,2.00000,-4.94121,-5.09240,0.00000,0.00000
2.1300,213,240,0,0,0.01043,0.01019,0.02717,0.02596,0.69907,0.69954,0.69995,0.70129,0.00000,0.00000,2.00000,2.00000,-4.93779,-5.08216,0.00000,0.00000
2.1400,214,240,0,0,0.01049,0.01042,0.02743,0.02712,0.69969,0.70241,0.70092,0.70074,0.00000,0.00000,2.00000,2.00000,-4.93583,-5.08096,0.00000,0.00000
2.1500,215,240,0,0,0.01040,0.01046,0.02701,0.02732,0.70121,0.70305,0.70348,0.69706,0.00000,0.00000,2.00000,2.00000,-4.93505,-5.08261,0.00000,0.00000
2.1600,216,240,0,0,0.01014,0.01036,0.02572,0.02680,0.69953,0.70241,0.70134,0.70088,0.00000,0.00000,2.00000,2.00000,-4.93790,-5.08771,0.00000,0.00000
2.1700,217,240,0,0,0.01040,0.01058,0.02700,0.02788,0.69706,0.69820,0.70152,0.70038,0.00000,0.00000,2.00000,2.00000,-4.93779,-5.08623,0.00000,0.00000
2.1800,218,240,0,0,0.01014,0.01053,0.02571,0.02766,0.70063,0.69655,0.70011,0.70071,0.00000,0.00000,2.00000,2.00000,-4.94758,-5.07258,0.00000,0.00000
2.1900,219,240,0,0,0.01037,0.01054,0.02687,0.02770,0.69957,0.69795,0.70167,0.70000,0.00000,0.00000,2.00000,2.00000,-4.95229,-5.07289,0.00000,0.00000
2.2000,220,240,0,0,0.01021,0.01052,0.02607,0.02761,0.70098,0.69819,0.70027,0.69754,0.00000,0.00000,2.00000,2.00000,-4.95172,-5.06575,0.00000,0.00000
2.2100,221,240,0,0,0.00998,0.01011,0.02491,0.02554,0.70278,0.69844,0.70014,0.69473,0.00000,0.00000,2.00000,2.00000,-4.94180,-5.05510,0.00000,0.00000
2.2200,222,240,0,0,0.01051,0.01041,0.02757,0.02705,0.70108,0.69892,0.70049,0.69424,0.00000,0.00000,2.00000,2.00000,-4.92210,-5.03960,0.00000,0.00000
2.2300,223,240,0,0,0.01044,0.01001,0.02722,0.02504,0.70133,0.69909,0.69847,0.69705,0.00000,0.00000,2.00000,2.00000,-4.91515,-5.02679,0.00000,0.00000
2.2400,224,240,0,0,0.01020,0.01016,0.02598,0.02582,0.69937,0.69976,0.69866,0.69646,0.00000,0.00000,2.00000,2.00000,-4.92145,-5.02333,0.00000,0.00000
2.2500,225,240,0,0,0.00984,0.01068,0.02418,0.02840,0.70075,0.69936,0.70044,0.69774,0.00000,0.00000,2.00000,2.00000,-4.91321,-5.00605,0.00000,0.00000
2.2600,226,240,0,0,0.00989,0.01051,0.02446,0.02754,0.70120,0.69855,0.69869,0.69722,0.00000,0.00000,2.00000,2.00000,-4.91243,-5.00934,0.00000,0.00000
2.2700,227,240,0,0,0.01024,0.01051,0.02622,0.02754,0.70096,0.70049,0.70281,0.69913,0.00000,0.00000,2.00000,2.00000,-4.89745,-5.01414,0.00000,0.00000
2.2800,228,240,0,0,0.01043,0.01073,0.02716,0.02863,0.70105,0.70273,0.70357,0.69771,0.00000,0.00000,2.00000,2.00000,-4.88794,-5.00744,0.00000,0.00000
2.2900,229,240,0,0,0.01036,0.01053,0.02679,0.02765,0.70272,0.70111,0.70290,0.69587,0.00000,0.00000,2.00000,2.00000,-4.87752,-4.99989,0.00000,0.00000
2.3000,230,240,0,0,0.01027,0.01033,0.02637,0.02663,0.70489,0.70204,0.70467,0.69489,0.00000,0.00000,2.00000,2.00000,-4.87084,-4.99376,0.00000,0.00000
2.3100,231,240,0,0,0.01018,0.01004,0.02588,0.02518,0.70483,0.69929,0.70450,0.69669,0.00000,0.00000,2.00000,2.00000,-4.86605,-5.00642,0.00000,0.00000
2.3200,232,240,0,0,0.01029,0.01023,0.02647,0.02614,0.70340,0.70048,0.70472,0.69972,0.00000,0.00000,2.00000,2.00000,-4.88162,-4.99875,0.00000,0.00000
2.3300,233,240,0,0,0.01022,0.01035,0.02610,0.02673,0.70579,0.69714,0.70750,0.69948,0.00000,0.00000,2.00000,2.00000,-4.89776,-4.99069,0.00000,0.00000
2.3400,234,240,0,0,0.01010,0.01050,0.02549,0.02751,0.70430,0.69773,0.70182,0.70143,0.00000,0.00000,2.00000,2.00000,-4.90214,-5.00117,0.00000,0.00000
2.3500,235,240,0,0,0.00987,0.01019,0.02434,0.02593,0.70163,0.69543,0.70053,0.69990,0.00000,0.00000,2.00000,2.00000,-4.91636,-5.00993,0.00000,0.00000
2.3600,236,240,0,0,0.01043,0.01046,0.02713,0.02729,0.70069,0.69595,0.70192,0.70284,0.00000,0.00000,2.00000,2.00000,-4.91041,-5.01403,0.00000,0.00000
2.3700,237,240,0,0,0.01005,0.01078,0.02524,0.02891,0.70004,0.69700,0.69804,0.70254,0.00000,0.00000,2.00000,2.00000,-4.92611,-5.01813,0.00000,0.00000
2.3800,238,240,0,0,0.01023,0.01082,0.02616,0.02911,0.69815,0.69810,0.69996,0.70121,0.00000,0.00000,2.00000,2.00000,-4.92220,-5.02934,0.00000,0.00000
2.3900,239,240,0,0,0.01044,0.01107,0.02720,0.03034,0.69533,0.69970,0.69987,0.70164,0.00000,0.00000,2.00000,2.00000,-4.92692,-5.03849,0.00000,0.00000
2.4000,240,240,0,0,0.01055,0.01068,0.02773,0.02838,0.69685,0.70105,0.69903,0.69836,0.00000,0.00000,2.00000,2.00000,-4.91840,-5.05003,0.00000,0.00000
2.4100,241,240,0,0,0.01071,0.01037,0.02854,0.02685,0.69785,0.70011,0.70128,0.69723,0.00000,0.00000,2.00000,2.00000,-4.92027,-5.04036,0.00000,0.00000
2.4200,242,240,0,0,0.01078,0.01050,0.02892,0.02749,0.69715,0.69777,0.70174,0.69558,0.00000,0.00000,2.00000,2.00000,-4.92706,-5.02848,0.00000,0.00000
2.4300,243,240,0,0,0.01061,0.01016,0.02805,0.02580,0.69615,0.70252,0.70215,0.69859,0.00000,0.00000,2.00000,2.00000,-4.92836,-5.01975,0.00000,0.00000
2.4400,244,240,0,0,0.01072,0.01030,0.02862,0.02650,0.69614,0.70157,0.70007,0.70041,0.00000,0.00000,2.00000,2.00000,-4.91697,-5.00265,0.00000,0.00000
2.4500,245,240,0,0,0.01065,0.01040,0.02827,0.02700,0.69546,0.69925,0.69814,0.69957,0.00000,0.00000,2.00000,2.00000,-4.91472,-4.98434,0.00000,0.00000
2.4600,246,240,0,0,0.01054,0.01057,0.02768,0.02784,0.69509,0.69946,0.69782,0.70079,0.00000,0.00000,2.00000,2.00000,-4.91265,-4.97291,0.00000,0.00000
2.4700,247,240,0,0,0.01006,0.01096,0.02530,0.02980,0.69570,0.70038,0.70230,0.70034,0.00000,0.00000,2.00000,2.00000,-4.92019,-4.96535,0.00000,0.00000
2.4800,248,240,0,0,0.00980,0.01061,0.02399,0.02804,0.69516,0.69944,0.70168,0.70034,0.00000,0.00000,2.00000,2.00000,-4.91932,-4.97095,0.00000,0.00000
2.4900,249,240,0,0,0.00973,0.01092,0.02364,0.02961,0.69773,0.69798,0.70213,0.70291,0.00000,0.00000,2.00000,2.00000,-4.91312,-4.95679,0.00000,0.00000
2.5000,250,240,0,0,0.01004,0.01044,0.02521,0.02719,0.69593,0.69784,0.70263,0.70123,0.00000,0.00000,2.00000,2.00000,-4.90868,-4.93761,0.00000,0.00000
2.5100,251,240,0,0,0.01042,0.01039,0.02710,0.02695,0.69481,0.69921,0.70161,0.69890,0.00000,0.00000,2.00000,2.00000,-4.89934,-4.92770,0.00000,0.00000
2.5200,252,240,0,0,0.01063,0.01031,0.02814,0.02654,0.69283,0.69986,0.70472,0.69746,0.00000,0.00000,2.00000,2.00000,-4.89641,-4.90707,0.00000,0.00000
2.5300,253,240,0,0,0.01057,0.01074,0.02787,0.02871,0.69478,0.69913,0.70326,0.70140,0.00000,0.00000,2.00000,2.00000,-4.90537,-4.87955,0.00000,0.00000
2.5400,254,240,0,0,0.01044,0.01062,0.02722,0.02812,0.69853,0.69773,0.70164,0.69862,0.00000,0.00000,2.00000,2.00000,-4.92673,-4.85978,0.00000,0.00000
2.5500,255,240,0,0,0.01042,0.01066,0.02711,0.02832,0.70231,0.69776,0.69972,0.69729,0.00000,0.00000,2.00000,2.00000,-4.94308,-4.84225,0.00000,0.00000
2.5600,256,240,0,0,0.01040,0.01052,0.02699,0.02762,0.70074,0.69902,0.70121,0.69783,0.00000,0.00000,2.00000,2.00000,-4.95710,-4.83006,0.00000,0.00000
2.5700,257,240,0,0,0.01034,0.01020,0.02669,0.02598,0.70148,0.69961,0.70166,0.69946,0.00000,0.00000,2.00000,2.00000,-4.97649,-4.82296,0.00000,0.00000
2.5800,258,240,0,0,0.01013,0.01011,0.02567,0.02557,0.70125,0.70017,0.70067,0.69589,0.00000,0.00000,2.00000,2.00000,-4.97574,-4.83274,0.00000,0.00000
2.5900,259,240,0,0,0.01009,0.01045,0.02543,0.02725,0.70106,0.70078,0.70265,0.69734,0.00000,0.00000,2.00000,2.00000,-4.98048,-4.83763,0.00000,0.00000
2.6000,260,240,0,0,0.01021,0.01054,0.02606,0.02771,0.69905,0.69849,0.70451,0.69699,0.00000,0.00000,2.00000,2.00000,-4.96671,-4.85644,0.00000,0.00000
2.6100,261,240,0,0,0.01039,0.01092,0.02695,0.02961,0.69719,0.69992,0.70302,0.69544,0.00000,0.00000,2.00000,2.00000,-4.95468,-4.87638,0.00000,0.00000
2.6200,262,240,0,0,0.01062,0.01089,0.02809,0.02947,0.69904,0.70014,0.70136,0.69631,0.00000,0.00000,2.00000,2.00000,-4.93649,-4.87297,0.00000,0.00000
2.6300,263,240,0,0,0.01050,0.01047,0.02749,0.02736,0.69734,0.69828,0.70060,0.69745,0.00000,0.00000,2.00000,2.00000,-4.92309,-4.88311,0.00000,0.00000
2.6400,264,240,0,0,0.01032,0.01004,0.02660,0.02518,0.69903,0.69666,0.70210,0.69592,0.00000,0.00000,2.00000,2.00000,-4.91315,-4.88541,0.00000,0.00000
2.6500,265,240,0,0,0.01020,0.01041,0.02601,0.02703,0.69717,0.69795,0.70131,0.69567,0.00000,0.00000,2.00000,2.00000,-4.90315,-4.87983,0.00000,0.00000
2.6600,266,240,0,0,0.01037,0.01047,0.02685,0.02736,0.69576,0.70051,0.70281,0.69701,0.00000,0.00000,2.00000,2.00000,-4.90448,-4.88684,0.00000,0.00000
2.6700,267,240,0,0,0.01025,0.01022,0.02627,0.02609,0.69506,0.70028,0.70065,0.69864,0.00000,0.00000,2.00000,2.00000,-4.88786,-4.89057,0.00000,0.00000
2.6800,268,240,0,0,0.01012,0.01042,0.02561,0.02710,0.69735,0.69787,0.70240,0.69537,0.00000,0.00000,2.00000,2.00000,-4.88726,-4.87820,0.00000,0.00000
2.6900,269,240,0,0,0.01028,0.01013,0.02638,0.02563,0.69716,0.69874,0.69794,0.69565,0.00000,0.00000,2.00000,2.00000,-4.89192,-4.86706,0.00000,0.00000
2.7000,270,240,0,0,0.01060,0.01013,0.02800,0.02565,0.69822,0.69899,0.69698,0.69379,0.00000,0.00000,2.00000,2.00000,-4.89454,-4.87259,0.00000,0.00000
2.7100,271,240,0,0,0.01085,0.01025,0.02926,0.02627,0.69878,0.69919,0.69895,0.69347,0.00000,0.00000,2.00000,2.00000,-4.89952,-4.88196,0.00000,0.00000
2.7200,272,240,0,0,0.01072,0.01054,0.02859,0.02769,0.69768,0.70037,0.70032,0.69813,0.00000,0.00000,2.00000,2.00000,-4.89303,-4.89367,0.00000,0.00000
2.7300,273,240,0,0,0.01070,0.01035,0.02850,0.02673,0.70003,0.69766,0.69957,0.69574,0.00000,0.00000,2.00000,2.00000,-4.88247,-4.90482,0.00000,0.00000
2.7400,274,240,0,0,0.01042,0.01035,0.02708,0.02673,0.69727,0.69817,0.69911,0.69707,0.00000,0.00000,2.00000,2.00000,-4.88041,-4.91072,0.00000,0.00000
2.7500,275,240,0,0,0.01007,0.01058,0.02536,0.02789,0.69896,0.70049,0.69727,0.69582,0.00000,0.00000,2.00000,2.00000,-4.88104,-4.92597,0.00000,0.00000
2.7600,276,240,0,0,0.01056,0.01047,0.02779,0.02735,0.70084,0.69944,0.69725,0.69784,0.00000,0.00000,2.00000,2.00000,-4.87555,-4.94311,0.00000,0.00000
2.7700,277,240,0,0,0.01060,0.01049,0.02801,0.02747,0.70122,0.69860,0.69960,0.69897,0.00000,0.00000,2.00000,2.00000,-4.88796,-4.93953,0.00000,0.00000
2.7800,278,240,0,0,0.01035,0.01010,0.02675,0.02552,0.70101,0.69971,0.69865,0.69839,0.00000,0.00000,2.00000,2.00000,-4.87300,-4.94794,0.00000,0.00000
2.7900,279,240,0,0,0.01034,0.01023,0.02670,0.02615,0.70137,0.70042,0.69791,0.69867,0.00000,0.00000,2.00000,2.00000,-4.86382,-4.94417,0.00000,0.00000
2.8000,280,240,0,0,0.01013,0.01020,0.02566,0.02598,0.70091,0.70154,0.69842,0.69926,0.00000,0.00000,2.00000,2.00000,-4.85475,-4.92898,0.00000,0.00000
2.8100,281,240,0,0,0.01012,0.01042,0.02562,0.02712,0.70055,0.70231,0.69941,0.69982,0.00000,0.00000,2.00000,2.00000,-4.84978,-4.92782,0.00000,0.00000
2.8200,282,240,0,0,0.01024,0.01075,0.02619,0.02873,0.69808,0.69979,0.70052,0.70195,0.00000,0.00000,2.00000,2.00000,-4.85163,-4.92053,0.00000,0.00000
2.8300,283,240,0,0,0.01017,0.01072,0.02587,0.02861,0.69794,0.69774,0.70197,0.70163,0.00000,0.00000,2.00000,2.00000,-4.86599,-4.92052,0.00000,0.00000
2.8400,284,240,0,0,0.01031,0.01065,0.02656,0.02826,0.69705,0.69881,0.70021,0.69834,0.00000,0.00000,2.00000,2.00000,-4.86909,-4.91583,0.00000,0.00000
2.8500,285,240,0,0,0.01040,0.01021,0.02699,0.02603,0.69796,0.69824,0.69772,0.69798,0.00000,0.00000,2.00000,2.00000,-4.87071,-4.90930,0.00000,0.00000
2.8600,286,240,0,0,0.01073,0.01014,0.02867,0.02570,0.70020,0.69824,0.69906,0.69590,0.00000,0.00000,2.00000,2.00000,-4.87093,-4.89574,0.00000,0.00000
2.8700,287,240,0,0,0.01025,0.01018,0.02624,0.02591,0.70024,0.69769,0.70210,0.69637,0.00000,0.00000,2.00000,2.00000,-4.87380,-4.88967,0.00000,0.00000
2.8800,288,240,0,0,0.01016,0.01004,0.02579,0.02521,0.70032,0.70006,0.70131,0.69888,0.00000,0.00000,2.00000,2.00000,-4.87503,-4.89167,0.00000,0.00000
2.8900,289,240,0,0,0.00993,0.01007,0.02464,0.02536,0.70192,0.70210,0.69833,0.70113,0.00000,0.00000,2.00000,2.00000,-4.89275,-4.88747,0.00000,0.00000
2.9000,290,240,0,0,0.00998,0.01014,0.02489,0.02572,0.70375,0.69882,0.69795,0.70123,0.00000,0.00000,2.00000,2.00000,-4.90086,-4.88368,0.00000,0.00000
2.9100,291,240,0,0,0.01021,0.01073,0.02605,0.02865,0.70283,0.69593,0.69824,0.70203,0.00000,0.00000,2.00000,2.00000,-4.91032,-4.85945,0.00000,0.00000
2.9200,292,240,0,0,0.01060,0.01073,0.02798,0.02866,0.69878,0.69867,0.69775,0.70140,0.00000,0.00000,2.00000,2.00000,-4.91266,-4.85294,0.00000,0.00000
2.9300,293,240,0,0,0.01051,0.01088,0.02757,0.02942,0.70041,0.69934,0.70065,0.70357,0.00000,0.00000,2.00000,2.00000,-4.91706,-4.85701,0.00000,0.00000
2.9400,294,240,0,0,0.01073,0.01041,0.02863,0.02706,0.70079,0.70267,0.69925,0.70518,0.00000,0.00000,2.00000,2.00000,-4.90769,-4.86236,0.00000,0.00000
2.9500,295,240,0,0,0.01060,0.01056,0.02801,0.02778,0.69949,0.70049,0.70084,0.70627,0.00000,0.00000,2.00000,2.00000,-4.89767,-4.86973,0.00000,0.00000
2.9600,296,240,0,0,0.01026,0.01058,0.02631,0.02790,0.70084,0.70008,0.70278,0.70404,0.00000,0.00000,2.00000,2.00000,-4.89198,-4.86066,0.00000,0.00000
2.9700,297,240,0,0,0.01045,0.01070,0.02727,0.02852,0.70044,0.70124,0.70046,0.70217,0.00000,0.00000,2.00000,2.00000,-4.90072,-4.86352,0.00000,0.00000
2.9800,298,240,0,0,0.01046,0.01056,0.02731,0.02778,0.70056,0.69873,0.69778,0.70318,0.00000,0.00000,2.00000,2.00000,-4.90238,-4.86823,0.00000,0.00000
2.9900,299,240,0,0,0.01014,0.01049,0.02571,0.02744,0.69961,0.70033,0.69615,0.70248,0.00000,0.00000,2.00000,2.00000,-4.89408,-4.88364,0.00000,0.00000
3.0000,300,240,0,0,0.01043,0.01078,0.02717,0.02892,0.69709,0.69918,0.69774,0.70197,0.00000,0.00000,2.00000,2.00000,-4.89530,-4.89264,0.00000,0.00000
3.0100,301,240,0,0,0.01085,0.01040,0.02923,0.02702,0.69712,0.69695,0.70088,0.70080,0.00000,0.00000,2.00000,2.00000,-4.90799,-4.88626,0.00000,0.00000
3.0200,302,240,0,0,0.01079,0.01015,0.02895,0.02575,0.69504,0.69399,0.70107,0.70048,0.00000,0.00000,2.00000,2.00000,-4.91970,-4.89876,0.00000,0.00000
3.0300,303,240,0,0,0.01109,0.01016,0.03045,0.02579,0.69655,0.69552,0.70323,0.70146,0.00000,0.00000,2.00000,2.00000,-4.90717,-4.88679,0.00000,0.00000
3.0400,304,240,0,0,0.01060,0.01009,0.02800,0.02546,0.69648,0.69718,0.70034,0.70426,0.00000,0.00000,2.00000,2.00000,-4.90850,-4.87986,0.00000,0.00000
3.0500,305,240,0,0,0.01045,0.00997,0.02727,0.02487,0.69666,0.69819,0.69990,0.70428,0.00000,0.00000,2.00000,2.00000,-4.92686,-4.87024,0.00000,0.00000
3.0600,306,240,0,0,0.01040,0.01002,0.02698,0.02509,0.69566,0.69847,0.70128,0.70360,0.00000,0.00000,2.00000,2.00000,-4.92977,-4.85942,0.00000,0.00000
3.0700,307,240,0,0,0.01032,0.01056,0.02661,0.02779,0.69720,0.69955,0.70118,0.70329,0.00000,0.00000,2.00000,2.00000,-4.93115,-4.85615,0.00000,0.00000
3.0800,308,240,0,0,0.01046,0.01075,0.02729,0.02873,0.69801,0.70241,0.70148,0.70135,0.00000,0.00000,2.00000,2.00000,-4.94762,-4.84339,0.00000,0.00000
3.0900,309,240,0,0,0.01042,0.01065,0.02710,0.02823,0.69686,0.70398,0.70088,0.69968,0.00000,0.00000,2.00000,2.00000,-4.94869,-4.85865,0.00000,0.00000
3.1000,310,240,0,0,0.01051,0.01092,0.02754,0.02962,0.69849,0.70279,0.69948,0.70217,0.00000,0.00000,2.00000,2.00000,-4.95411,-4.87577,0.00000,0.00000
3.1100,311,240,0,0,0.01041,0.01054,0.02705,0.02772,0.69942,0.70455,0.69928,0.70459,0.00000,0.00000,2.00000,2.00000,-4.96129,-4.89000,0.00000,0.00000
3.1200,312,240,0,0,0.01040,0.01013,0.02699,0.02563,0.69955,0.70417,0.70245,0.70382,0.00000,0.00000,2.00000,2.00000,-4.96516,-4.89864,0.00000,0.00000
3.1300,313,240,0,0,0.01046,0.01017,0.02729,0.02585,0.70224,0.70168,0.69831,0.70541,0.00000,0.00000,2.00000,2.00000,-4.98162,-4.88924,0.00000,0.00000
3.1400,314,240,0,0,0.01007,0.01002,0.02533,0.02511,0.70045,0.70194,0.69764,0.70460,0.00000,0.00000,2.00000,2.00000,-4.99681,-4.89326,0.00000,0.00000
3.1500,315,240,0,0,0.01039,0.01017,0.02693,0.02586,0.69666,0.70258,0.69862,0.70456,0.00000,0.00000,2.00000,2.00000,-4.99808,-4.89663,0.00000,0.00000
3.1600,316,240,0,0,0.01007,0.00997,0.02534,0.02487,0.69787,0.70377,0.69832,0.70228,0.00000,0.00000,2.00000,2.00000,-4.99213,-4.89458,0.00000,0.00000
3.1700,317,240,0,0,0.01022,0.01005,0.02610,0.02525,0.70038,0.70080,0.70070,0.70203,0.00000,0.00000,2.00000,2.00000,-4.98816,-4.90068,0.00000,0.00000
3.1800,318,240,0,0,0.01044,0.00993,0.02721,0.02463,0.69980,0.69831,0.70285,0.70206,0.00000,0.00000,2.00000,2.00000,-5.00166,-4.91985,0.00000,0.00000
3.1900,319,240,0,0,0.01045,0.01011,0.02724,0.02555,0.70121,0.69952,0.70166,0.70228,0.00000,0.00000,2.00000,2.00000,-4.99253,-4.93207,0.00000,0.00000
3.2000,320,240,0,0,0.01007,0.00988,0.02533,0.02441,0.69905,0.70025,0.69918,0.70322,0.00000,0.00000,2.00000,2.00000,-5.00034,-4.93285,0.00000,0.00000
3.2100,321,240,0,0,0.01028,0.01031,0.02638,0.02655,0.70217,0.69956,0.69905,0.70242,0.00000,0.00000,2.00000,2.00000,-5.00603,-4.93340,0.00000,0.00000
3.2200,322,240,0,0,0.01074,0.01036,0.02868,0.02679,0.70089,0.69965,0.70034,0.70215,0.00000,0.00000,2.00000,2.00000,-5.01101,-4.94005,0.00000,0.00000
3.2300,323,240,0,0,0.01058,0.01006,0.02790,0.02530,0.70123,0.69941,0.70003,0.70325,0.00000,0.00000,2.00000,2.00000,-5.00558,-4.93335,0.00000,0.00000
3.2400,324,240,0,0,0.01069,0.01046,0.02846,0.02731,0.70377,0.69837,0.69940,0.70411,0.00000,0.00000,2.00000,2.00000,-4.99108,-4.93071,0.00000,0.00000
3.2500,325,240,0,0,0.01071,0.01042,0.02857,0.02709,0.70498,0.69923,0.69719,0.70420,0.00000,0.00000,2.00000,2.00000,-4.99008,-4.92182,0.00000,0.00000
3.2600,326,240,0,0,0.01046,0.01004,0.02730,0.02521,0.70481,0.69766,0.70200,0.70476,0.00000,0.00000,2.00000,2.00000,-5.00683,-4.92424,0.00000,0.00000
3.2700,327,240,0,0,0.01015,0.01036,0.02573,0.02682,0.70462,0.69950,0.70166,0.70588,0.00000,0.00000,2.00000,2.00000,-5.02196,-4.90731,0.00000,0.00000
3.2800,328,240,0,0,0.01035,0.01013,0.02677,0.02567,0.70196,0.70074,0.70181,0.70657,0.00000,0.00000,2.00000,2.00000,-5.03101,-4.91130,0.00000,0.00000
3.2900,329,240,0,0,0.01036,0.01003,0.02680,0.02513,0.70164,0.69832,0.69940,0.70531,0.00000,0.00000,2.00000,2.00000,-5.04674,-4.90916,0.00000,0.00000
3.3000,330,240,0,0,0.01015,0.01019,0.02574,0.02597,0.70122,0.69825,0.70054,0.70373,0.00000,0.00000,2.00000,2.00000,-5.04342,-4.89657,0.00000,0.00000
3.3100,331,240,0,0,0.01052,0.01021,0.02760,0.02604,0.70243,0.69981,0.69771,0.70228,0.00000,0.00000,2.00000,2.00000,-5.03718,-4.90377,0.00000,0.00000
3.3200,332,240,0,0,0.01033,0.01032,0.02665,0.02658,0.70262,0.70018,0.69703,0.70309,0.00000,0.00000,2.00000,2.00000,-5.04706,-4.88672,0.00000,0.00000
3.3300,333,240,0,0,0.01037,0.01032,0.02686,0.02659,0.70183,0.69746,0.69863,0.70263,0.00000,0.00000,2.00000,2.00000,-5.05342,-4.86774,0.00000,0.00000
3.3400,334,240,0,0,0.01019,0.01012,0.02594,0.02561,0.70023,0.69692,0.69541,0.70285,0.00000,0.00000,2.00000,2.00000,-5.04751,-4.86365,0.00000,0.00000
3.3500,335,240,0,0,0.01043,0.01031,0.02717,0.02653,0.70066,0.69783,0.69499,0.70292,0.00000,0.00000,2.00000,2.00000,-5.04701,-4.84027,0.00000,0.00000
3.3600,336,240,0,0,0.01035,0.01042,0.02675,0.02709,0.69677,0.69853,0.69620,0.69991,0.00000,0.00000,2.00000,2.00000,-5.03689,-4.83246,0.00000,0.00000
3.3700,337,240,0,0,0.01026,0.01086,0.02630,0.02932,0.69662,0.69838,0.69596,0.69723,0.00000,0.00000,2.00000,2.00000,-5.01078,-4.82732,0.00000,0.00000
3.3800,338,240,0,0,0.01031,0.01079,0.02654,0.02897,0.69717,0.70040,0.69549,0.69912,0.00000,0.00000,2.00000,2.00000,-5.00822,-4.83221,0.00000,0.00000
3.3900,339,240,0,0,0.01019,0.01053,0.02597,0.02765,0.69781,0.70169,0.69781,0.69887,0.00000,0.00000,2.00000,2.00000,-5.00434,-4.84247,0.00000,0.00000
3.4000,340,240,0,0,0.01051,0.01029,0.02757,0.02643,0.69773,0.70151,0.69910,0.69826,0.00000,0.00000,2.00000,2.00000,-4.99010,-4.85935,0.00000,0.00000
3.4100,341,240,0,0,0.01059,0.00985,0.02797,0.02425,0.69685,0.70251,0.70081,0.69908,0.00000,0.00000,2.00000,2.00000,-4.98407,-4.86549,0.00000,0.00000
3.4200,342,240,0,0,0.01084,0.01001,0.02919,0.02504,0.70050,0.70136,0.69930,0.69896,0.00000,0.00000,2.00000,2.00000,-4.97072,-4.87784,0.00000,0.00000
3.4300,343,240,0,0,0.01109,0.01022,0.03044,0.02612,0.69954,0.69964,0.70049,0.69972,0.00000,0.00000,2.00000,2.00000,-4.96222,-4.87119,0.00000,0.00000
3.4400,344,240,0,0,0.01050,0.00998,0.02752,0.02489,0.69987,0.70074,0.69933,0.69961,0.00000,0.00000,2.00000,2.00000,-4.97694,-4.85829,0.00000,0.00000
3.4500,345,240,0,0,0.01036,0.00980,0.02680,0.02399,0.70223,0.70102,0.70070,0.69794,0.00000,0.00000,2.00000,2.00000,-4.97949,-4.84752,0.00000,0.00000
3.4600,346,240,0,0,0.01004,0.01022,0.02519,0.02611,0.70212,0.70244,0.69855,0.69707,0.00000,0.00000,2.00000,2.00000,-4.97431,-4.84182,0.00000,0.00000
3.4700,347,240,0,0,0.01019,0.00994,0.02593,0.02468,0.70008,0.70184,0.69920,0.69478,0.00000,0.00000,2.00000,2.00000,-4.97293,-4.82714,0.00000,0.00000
3.4800,348,240,0,0,0.01049,0.01015,0.02746,0.02574,0.69823,0.70006,0.69700,0.69788,0.00000,0.00000,2.00000,2.00000,-4.97481,-4.82319,0.00000,0.00000
3.4900,349,240,0,0,0.01064,0.00993,0.02820,0.02464,0.69794,0.69539,0.69776,0.69977,0.00000,0.00000,2.00000,2.00000,-4.97896,-4.82979,0.00000,0.00000
3.5000,350,240,0,0,0.01077,0.00999,0.02885,0.02493,0.69765,0.69452,0.69923,0.69880,0.00000,0.00000,2.00000,2.00000,-4.98976,-4.84306,0.00000,0.00000
3.5100,351,240,0,0,0.01085,0.00995,0.02927,0.02473,0.69992,0.69510,0.70195,0.69767,0.00000,0.00000,2.00000,2.00000,-4.99938,-4.86267,0.00000,0.00000
3.5200,352,240,0,0,0.01049,0.01047,0.02744,0.02733,0.69889,0.69499,0.70464,0.69922,0.00000,0.00000,2.00000,2.00000,-5.00504,-4.86545,0.00000,0.00000
3.5300,353,240,0,0,0.01065,0.01047,0.02826,0.02737,0.69850,0.69543,0.70499,0.70028,0.00000,0.00000,2.00000,2.00000,-4.99903,-4.85916,0.00000,0.00000
3.5400,354,240,0,0,0.01028,0.01037,0.02638,0.02683,0.70137,0.69694,0.70476,0.69827,0.00000,0.00000,2.00000,2.00000,-4.98325,-4.86517,0.00000,0.00000
3.5500,355,240,0,0,0.01009,0.01005,0.02543,0.02527,0.69885,0.70112,0.70571,0.69844,0.00000,0.00000,2.00000,2.00000,-4.96660,-4.85432,0.00000,0.00000
3.5600,356,240,0,0,0.01060,0.01005,0.02799,0.02527,0.69813,0.69997,0.70031,0.69812,0.00000,0.00000,2.00000,2.00000,-4.95201,-4.84679,0.00000,0.00000
3.5700,357,240,0,0,0.01048,0.00982,0.02739,0.02412,0.69828,0.70104,0.70230,0.69876,0.00000,0.00000,2.00000,2.00000,-4.93281,-4.84218,0.00000,0.00000
3.5800,358,240,0,0,0.01025,0.00994,0.02624,0.02468,0.69615,0.69905,0.70100,0.69830,0.00000,0.00000,2.00000,2.00000,-4.93057,-4.83004,0.00000,0.00000
3.5900,359,240,0,0,0.01008,0.01027,0.02538,0.02633,0.69794,0.69955,0.70395,0.69639,0.00000,0.00000,2.00000,2.00000,-4.93112,-4.82265,0.00000,0.00000
3.6000,360,240,0,0,0.01006,0.01043,0.02529,0.02713,0.69959,0.70061,0.70467,0.69853,0.00000,0.00000,2.00000,2.00000,-4.92682,-4.81285,0.00000,0.00000
3.6100,361,240,0,0,0.00992,0.01046,0.02458,0.02729,0.69884,0.70035,0.70168,0.70249,0.00000,0.00000,2.00000,2.00000,-4.93831,-4.81943,0.00000,0.00000
3.6200,362,240,0,0,0.00965,0.01006,0.02326,0.02531,0.69733,0.69969,0.70014,0.70048,0.00000,0.00000,2.00000,2.00000,-4.93418,-4.82331,0.00000,0.00000
3.6300,363,240,0,0,0.00973,0.00990,0.02366,0.02450,0.69852,0.70244,0.69809,0.69723,0.00000,0.00000,2.00000,2.00000,-4.94274,-4.81917,0.00000,0.00000
3.6400,364,240,0,0,0.00983,0.00984,0.02415,0.02419,0.69809,0.70094,0.69679,0.69935,0.00000,0.00000,2.00000,2.00000,-4.94017,-4.81208,0.00000,0.00000
3.6500,365,240,0,0,0.00986,0.00988,0.02431,0.02441,0.69904,0.70352,0.69722,0.69732,0.00000,0.00000,2.00000,2.00000,-4.95321,-4.82653,0.00000,0.00000
3.6600,366,240,0,0,0.01026,0.01042,0.02630,0.02711,0.69998,0.70059,0.69906,0.69833,0.00000,0.00000,2.00000,2.00000,-4.95942,-4.81700,0.00000,0.00000
3.6700,367,240,0,0,0.00996,0.01006,0.02479,0.02532,0.69915,0.70037,0.69889,0.70136,0.00000,0.00000,2.00000,2.00000,-4.96223,-4.81192,0.00000,0.00000
3.6800,368,240,0,0,0.01032,0.01042,0.02658,0.02708,0.69846,0.69797,0.69665,0.69979,0.00000,0.00000,2.00000,2.00000,-4.95380,-4.81804,0.00000,0.00000
3.6900,369,240,0,0,0.01017,0.01068,0.02587,0.02841,0.69734,0.69860,0.69920,0.69983,0.00000,0.00000,2.00000,2.00000,-4.95039,-4.82812,0.00000,0.00000
3.7000,370,240,0,0,0.01006,0.01065,0.02532,0.02827,0.70017,0.69720,0.69793,0.70086,0.00000,0.00000,2.00000,2.00000,-4.94919,-4.83421,0.00000,0.00000
3.7100,371,240,0,0,0.00999,0.01065,0.02497,0.02826,0.69949,0.69757,0.69849,0.70180,0.00000,0.00000,2.00000,2.00000,-4.94405,-4.84999,0.00000,0.00000
3.7200,372,240,0,0,0.01017,0.01043,0.02583,0.02716,0.69564,0.69506,0.69864,0.69893,0.00000,0.00000,2.00000,2.00000,-4.94642,-4.85249,0.00000,0.00000
3.7300,373,240,0,0,0.01056,0.01007,0.02778,0.02533,0.69574,0.69515,0.69885,0.70027,0.00000,0.00000,2.00000,2.00000,-4.94459,-4.85350,0.00000,0.00000
3.7400,374,240,0,0,0.01055,0.01005,0.02775,0.02526,0.69598,0.69620,0.70024,0.70355,0.00000,0.00000,2.00000,2.00000,-4.94903,-4.86139,0.00000,0.00000
3.7500,375,240,0,0,0.01052,0.01023,0.02758,0.02614,0.69790,0.69444,0.69907,0.70412,0.00000,0.00000,2.00000,2.00000,-4.96011,-4.87105,0.00000,0.00000
3.7600,376,240,0,0,0.01062,0.01033,0.02810,0.02667,0.69637,0.69625,0.70170,0.70572,0.00000,0.00000,2.00000,2.00000,-4.94860,-4.88229,0.00000,0.00000
3.7700,377,240,0,0,0.01066,0.01036,0.02829,0.02681,0.69722,0.69910,0.70255,0.70279,0.00000,0.00000,2.00000,2.00000,-4.95188,-4.88113,0.00000,0.00000
3.7800,378,240,0,0,0.01048,0.00989,0.02740,0.02447,0.69807,0.70128,0.70162,0.70371,0.00000,0.00000,2.00000,2.00000,-4.96887,-4.89262,0.00000,0.00000
3.7900,379,240,0,0,0.01052,0.01025,0.02762,0.02627,0.69357,0.69834,0.70363,0.70434,0.00000,0.00000,2.00000,2.00000,-4.96448,-4.90738,0.00000,0.00000
3.8000,380,240,0,0,0.01038,0.01058,0.02688,0.02792,0.69558,0.69830,0.70201,0.70552,0.00000,0.00000,2.00000,2.00000,-4.98260,-4.92565,0.00000,0.00000
3.8100,381,240,0,0,0.01034,0.01032,0.02670,0.02661,0.69724,0.70089,0.70283,0.70509,0.00000,0.00000,2.00000,2.00000,-4.97060,-4.93593,0.00000,0.00000
3.8200,382,240,0,0,0.01012,0.01036,0.02561,0.02681,0.69970,0.70196,0.70258,0.70282,0.00000,0.00000,2.00000,2.00000,-4.98216,-4.94393,0.00000,0.00000
3.8300,383,240,0,0,0.01025,0.01006,0.02627,0.02531,0.69990,0.70475,0.70197,0.70135,0.00000,0.00000,2.00000,2.00000,-4.98085,-4.95353,0.00000,0.00000
3.8400,384,240,0,0,0.01029,0.01067,0.02647,0.02837,0.69777,0.70039,0.70384,0.70056,0.00000,0.00000,2.00000,2.00000,-4.97347,-4.96469,0.00000,0.00000
3.8500,385,240,0,0,0.01014,0.01035,0.02571,0.02675,0.69558,0.69654,0.70546,0.70096,0.00000,0.00000,2.00000,2.00000,-4.96512,-4.96036,0.00000,0.00000
3.8600,386,240,0,0,0.01018,0.01066,0.02590,0.02832,0.69408,0.69769,0.70439,0.70051,0.00000,0.00000,2.00000,2.00000,-4.95231,-4.96557,0.00000,0.00000
3.8700,387,240,0,0,0.01000,0.01046,0.02501,0.02729,0.69526,0.69955,0.70372,0.69917,0.00000,0.00000,2.00000,2.00000,-4.94855,-4.96325,0.00000,0.00000
3.8800,388,240,0,0,0.00996,0.01088,0.02482,0.02942,0.69532,0.70042,0.70099,0.69855,0.00000,0.00000,2.00000,2.00000,-4.94481,-4.95475,0.00000,0.00000
3.8900,389,240,0,0,0.01036,0.01086,0.02680,0.02932,0.69400,0.70012,0.70335,0.70053,0.00000,0.00000,2.00000,2.00000,-4.95375,-4.95844,0.00000,0.00000
3.9000,390,240,0,0,0.01024,0.01097,0.02620,0.02983,0.69528,0.70544,0.70306,0.70225,0.00000,0.00000,2.00000,2.00000,-4.93408,-4.93992,0.00000,0.00000
3.9100,391,240,0,0,0.01056,0.01089,0.02779,0.02947,0.69933,0.70429,0.70231,0.70490,0.00000,0.00000,2.00000,2.00000,-4.91258,-4.93447,0.00000,0.00000
3.9200,392,240,0,0,0.01037,0.01009,0.02684,0.02544,0.70048,0.70359,0.70087,0.70174,0.00000,0.00000,2.00000,2.00000,-4.89872,-4.93672,0.00000,0.00000
3.9300,393,240,0,0,0.01033,0.01014,0.02667,0.02572,0.70411,0.70201,0.70018,0.70283,0.00000,0.00000,2.00000,2.00000,-4.88382,-4.94525,0.00000,0.00000
3.9400,394,240,0,0,0.00997,0.01031,0.02484,0.02655,0.70605,0.70207,0.69912,0.70329,0.00000,0.00000,2.00000,2.00000,-4.86317,-4.94637,0.00000,0.00000
3.9500,395,240,0,0,0.01019,0.01030,0.02596,0.02648,0.70435,0.70317,0.70177,0.69972,0.00000,0.00000,2.00000,2.00000,-4.85907,-4.94336,0.00000,0.00000
3.9600,396,240,0,0,0.01064,0.01018,0.02818,0.02590,0.70187,0.70297,0.70106,0.69935,0.00000,0.00000,2.00000,2.00000,-4.84439,-4.94309,0.00000,0.00000
3.9700,397,240,0,0,0.01040,0.00995,0.02698,0.02473,0.70141,0.70305,0.70053,0.69974,0.00000,0.00000,2.00000,2.00000,-4.82309,-4.94445,0.00000,0.00000
3.9800,398,240,0,0,0.01056,0.00994,0.02782,0.02472,0.69955,0.70049,0.70162,0.69999,0.00000,0.00000,2.00000,2.00000,-4.82663,-4.95262,0.00000,0.00000
3.9900,399,240,0,0,0.01061,0.01009,0.02803,0.02547,0.69869,0.70311,0.70153,0.69981,0.00000,0.00000,2.00000,2.00000,-4.81732,-4.96025,0.00000,0.00000
4.0000,400,240,0,0,0.01038,0.01024,0.02690,0.02619,0.70098,0.70391,0.69939,0.70019,0.00000,0.00000,2.00000,2.00000,-4.81289,-4.96111,0.00000,0.00000
4.0100,401,240,0,0,0.01063,0.01024,0.02817,0.02618,0.70271,0.70227,0.70156,0.69992,0.00000,0.00000,2.00000,2.00000,-4.81669,-4.97833,0.00000,0.00000
4.0200,402,240,0,0,0.01040,0.01047,0.02700,0.02737,0.70272,0.69927,0.70107,0.70211,0.00000,0.00000,2.00000,2.00000,-4.81244,-4.98453,0.00000,0.00000
4.0300,403,240,0,0,0.01024,0.01055,0.02619,0.02775,0.70127,0.70271,0.70280,0.69935,0.00000,0.00000,2.00000,2.00000,-4.81319,-4.98049,0.00000,0.00000
4.0400,404,240,0,0,0.01024,0.01032,0.02621,0.02658,0.70318,0.70118,0.70183,0.70050,0.00000,0.00000,2.00000,2.00000,-4.81292,-4.98277,0.00000,0.00000
4.0500,405,240,0,0,0.01046,0.01037,0.02728,0.02684,0.70415,0.70215,0.70032,0.70152,0.00000,0.00000,2.00000,2.00000,-4.81482,-4.98804,0.00000,0.00000
4.0600,406,240,0,0,0.01084,0.01043,0.02918,0.02715,0.70134,0.69938,0.69765,0.69886,0.00000,0.00000,2.00000,2.00000,-4.82123,-4.99100,0.00000,0.00000
4.0700,407,240,0,0,0.01071,0.01067,0.02857,0.02836,0.70329,0.69585,0.69954,0.69728,0.00000,0.00000,2.00000,2.00000,-4.81884,-5.00646,0.00000,0.00000
4.0800,408,240,0,0,0.01042,0.01051,0.02711,0.02755,0.70167,0.69888,0.70033,0.69532,0.00000,0.00000,2.00000,2.00000,-4.80698,-4.99759,0.00000,0.00000
4.0900,409,240,0,0,0.01025,0.01050,0.02627,0.02749,0.70193,0.70072,0.69995,0.69750,0.00000,0.00000,2.00000,2.00000,-4.80455,-4.99836,0.00000,0.00000
4.1000,410,240,0,0,0.01058,0.01084,0.02789,0.02921,0.70245,0.70082,0.69931,0.69886,0.00000,0.00000,2.00000,2.00000,-4.79890,-5.01031,0.00000,0.00000
4.1100,411,240,0,0,0.01057,0.01060,0.02783,0.02800,0.69977,0.70123,0.70061,0.70018,0.00000,0.00000,2.00000,2.00000,-4.79936,-5.00285,0.00000,0.00000
4.1200,412,240,0,0,0.01001,0.01041,0.02504,0.02706,0.70097,0.69900,0.70119,0.69742,0.00000,0.00000,2.00000,2.00000,-4.80608,-5.00510,0.00000,0.00000
4.1300,413,240,0,0,0.01053,0.01032,0.02767,0.02659,0.70098,0.70112,0.70075,0.69546,0.00000,0.00000,2.00000,2.00000,-4.81687,-5.01181,0.00000,0.00000
4.1400,414,240,0,0,0.01042,0.01045,0.02709,0.02727,0.69905,0.70176,0.69777,0.69725,0.00000,0.00000,2.00000,2.00000,-4.83045,-5.02053,0.00000,0.00000
4.1500,415,240,0,0,0.01010,0.01057,0.02552,0.02786,0.69868,0.70010,0.69714,0.69822,0.00000,0.00000,2.00000,2.00000,-4.83377,-5.02748,0.00000,0.00000
4.1600,416,240,0,0,0.01006,0.01056,0.02530,0.02780,0.69978,0.69849,0.69845,0.70009,0.00000,0.00000,2.00000,2.00000,-4.82959,-5.02900,0.00000,0.00000
4.1700,417,240,0,0,0.00996,0.01018,0.02482,0.02591,0.70073,0.70031,0.69844,0.69907,0.00000,0.00000,2.00000,2.00000,-4.83477,-5.03566,0.00000,0.00000
4.1800,418,240,0,0,0.01004,0.00995,0.02518,0.02477,0.70090,0.70163,0.69932,0.69781,0.00000,0.00000,2.00000,2.00000,-4.82510,-5.04572,0.00000,0.00000
4.1900,419,240,0,0,0.01000,0.01018,0.02500,0.02590,0.69948,0.70217,0.70218,0.69674,0.00000,0.00000,2.00000,2.00000,-4.82423,-5.05682,0.00000,0.00000
4.2000,420,240,0,0,0.00980,0.01050,0.02400,0.02748,0.70160,0.70077,0.70188,0.69672,0.00000,0.00000,2.00000,2.00000,-4.82285,-5.06700,0.00000,0.00000
4.2100,421,240,0,0,0.00993,0.01050,0.02463,0.02749,0.69846,0.70526,0.70271,0.69788,0.00000,0.00000,2.00000,2.00000,-4.82879,-5.05469,0.00000,0.00000
4.2200,422,240,0,0,0.01034,0.01059,0.02670,0.02793,0.69991,0.70532,0.70217,0.69818,0.00000,0.00000,2.00000,2.00000,-4.82234,-5.04796,0.00000,0.00000
4.2300,423,240,0,0,0.01007,0.01043,0.02537,0.02713,0.69809,0.70603,0.70281,0.70044,0.00000,0.00000,2.00000,2.00000,-4.83218,-5.05556,0.00000,0.00000
4.2400,424,240,0,0,0.01026,0.01050,0.02631,0.02752,0.69328,0.70517,0.70410,0.70045,0.00000,0.00000,2.00000,2.00000,-4.84729,-5.05537,0.00000,0.00000
4.2500,425,240,0,0,0.01028,0.01055,0.02638,0.02773,0.69527,0.70485,0.70215,0.70353,0.00000,0.00000,2.00000,2.00000,-4.85417,-5.06020,0.00000,0.00000
4.2600,426,240,0,0,0.01053,0.01035,0.02764,0.02673,0.69630,0.70428,0.70057,0.70054,0.00000,0.00000,2.00000,2.00000,-4.86176,-5.05880,0.00000,0.00000
4.2700,427,240,0,0,0.01034,0.01062,0.02671,0.02808,0.69795,0.70186,0.69889,0.70089,0.00000,0.00000,2.00000,2.00000,-4.86039,-5.05233,0.00000,0.00000
4.2800,428,240,0,0,0.01033,0.01066,0.02663,0.02828,0.69689,0.70266,0.70346,0.70144,0.00000,0.00000,2.00000,2.00000,-4.85108,-5.04298,0.00000,0.00000
4.2900,429,240,0,0,0.01042,0.01065,0.02710,0.02827,0.69789,0.70366,0.70212,0.70187,0.00000,0.00000,2.00000,2.00000,-4.84615,-5.03573,0.00000,0.00000
4.3000,430,240,0,0,0.01041,0.01026,0.02705,0.02631,0.69764,0.70472,0.70196,0.70378,0.00000,0.00000,2.00000,2.00000,-4.85237,-5.03446,0.00000,0.00000
4.3100,431,240,0,0,0.01064,0.01040,0.02819,0.02698,0.69988,0.70680,0.70383,0.70117,0.00000,0.00000,2.00000,2.00000,-4.84662,-5.03731,0.00000,0.00000
4.3200,432,240,0,0,0.01068,0.01050,0.02840,0.02752,0.70101,0.70271,0.70290,0.70141,0.00000,0.00000,2.00000,2.00000,-4.83635,-5.03337,0.00000,0.00000
4.3300,433,240,0,0,0.01082,0.01042,0.02911,0.02712,0.70291,0.70187,0.70207,0.70159,0.00000,0.00000,2.00000,2.00000,-4.84830,-5.03244,0.00000,0.00000
4.3400,434,240,0,0,0.01044,0.01049,0.02720,0.02744,0.69932,0.70049,0.70165,0.69946,0.00000,0.00000,2.00000,2.00000,-4.84473,-5.02430,0.00000,0.00000
4.3500,435,240,0,0,0.01055,0.01046,0.02775,0.02731,0.69781,0.69958,0.70145,0.70068,0.00000,0.00000,2.00000,2.00000,-4.85958,-5.00444,0.00000,0.00000
4.3600,436,240,0,0,0.01060,0.01081,0.02801,0.02903,0.69813,0.70074,0.70242,0.70148,0.00000,0.00000,2.00000,2.00000,-4.85751,-4.99181,0.00000,0.00000
4.3700,437,240,0,0,0.01075,0.01055,0.02873,0.02776,0.69890,0.70360,0.70317,0.70129,0.00000,0.00000,2.00000,2.00000,-4.86013,-4.99694,0.00000,0.00000
4.3800,438,240,0,0,0.01049,0.01055,0.02747,0.02775,0.70179,0.70043,0.70263,0.69930,0.00000,0.00000,2.00000,2.00000,-4.87172,-4.99795,0.00000,0.00000
4.3900,439,240,0,0,0.01025,0.01040,0.02625,0.02698,0.70119,0.70175,0.70351,0.69960,0.00000,0.00000,2.00000,2.00000,-4.86838,-5.00075,0.00000,0.00000
4.4000,440,240,0,0,0.01020,0.01045,0.02600,0.02723,0.69897,0.70267,0.70595,0.70081,0.00000,0.00000,2.00000,2.00000,-4.88630,-5.00756,0.00000,0.00000
4.4100,441,240,0,0,0.01058,0.01048,0.02791,0.02742,0.70086,0.70217,0.70430,0.70194,0.00000,0.00000,2.00000,2.00000,-4.90415,-5.00115,0.00000,0.00000
4.4200,442,240,0,0,0.01045,0.01071,0.02724,0.02855,0.70019,0.70417,0.70112,0.70270,0.00000,0.00000,2.00000,2.00000,-4.90892,-5.01333,0.00000,0.00000
4.4300,443,240,0,0,0.01031,0.01057,0.02656,0.02785,0.69700,0.70132,0.69693,0.70516,0.00000,0.00000,2.00000,2.00000,-4.90690,-5.01592,0.00000,0.00000
4.4400,444,240,0,0,0.01041,0.01049,0.02705,0.02745,0.69987,0.70049,0.69831,0.70251,0.00000,0.00000,2.00000,2.00000,-4.92249,-5.02114,0.00000,0.00000
4.4500,445,240,0,0,0.01024,0.01037,0.02622,0.02684,0.69700,0.70046,0.69765,0.70303,0.00000,0.00000,2.00000,2.00000,-4.93324,-5.01142,0.00000,0.00000
4.4600,446,240,0,0,0.01030,0.01015,0.02648,0.02575,0.69758,0.70024,0.69738,0.70489,0.00000,0.00000,2.00000,2.00000,-4.93055,-5.00389,0.00000,0.00000
4.4700,447,240,0,0,0.01075,0.00988,0.02877,0.02441,0.69770,0.69909,0.69744,0.70248,0.00000,0.00000,2.00000,2.00000,-4.92816,-5.01222,0.00000,0.00000
4.4800,448,240,0,0,0.01051,0.00998,0.02754,0.02488,0.69829,0.70145,0.69764,0.69915,0.00000,0.00000,2.00000,2.00000,-4.92713,-5.01514,0.00000,0.00000
4.4900,449,240,0,0,0.01017,0.01004,0.02583,0.02519,0.69817,0.70047,0.70016,0.69885,0.00000,0.00000,2.00000,2.00000,-4.90956,-5.00686,0.00000,0.00000
4.5000,450,240,0,0,0.00987,0.01019,0.02435,0.02594,0.69832,0.69860,0.69906,0.70140,0.00000,0.00000,2.00000,2.00000,-4.92078,-4.99278,0.00000,0.00000
4.5100,451,240,0,0,0.01023,0.01016,0.02617,0.02578,0.69848,0.69828,0.69801,0.69991,0.00000,0.00000,2.00000,2.00000,-4.92586,-5.00317,0.00000,0.00000
4.5200,452,240,0,0,0.01047,0.01047,0.02734,0.02734,0.70057,0.70104,0.69597,0.69979,0.00000,0.00000,2.00000,2.00000,-4.93000,-4.99668,0.00000,0.00000
4.5300,453,240,0,0,0.01022,0.01039,0.02610,0.02696,0.70066,0.70059,0.69917,0.69801,0.00000,0.00000,2.00000,2.00000,-4.92498,-4.99611,0.00000,0.00000
4.5400,454,240,0,0,0.01022,0.01054,0.02611,0.02768,0.69672,0.69954,0.70065,0.69836,0.00000,0.00000,2.00000,2.00000,-4.92321,-5.00638,0.00000,0.00000
4.5500,455,240,0,0,0.01045,0.01048,0.02727,0.02740,0.69538,0.69857,0.70145,0.69907,0.00000,0.00000,2.00000,2.00000,-4.92157,-4.99753,0.00000,0.00000
4.5600,456,240,0,0,0.01019,0.01023,0.02594,0.02613,0.69513,0.69705,0.69975,0.69847,0.00000,0.00000,2.00000,2.00000,-4.93259,-4.99428,0.00000,0.00000
4.5700,457,240,0,0,0.01004,0.01062,0.02522,0.02809,0.69731,0.69736,0.70010,0.70117,0.00000,0.00000,2.00000,2.00000,-4.93338,-4.98523,0.00000,0.00000
4.5800,458,240,0,0,0.00982,0.01061,0.02410,0.02803,0.69783,0.69996,0.70059,0.69726,0.00000,0.00000,2.00000,2.00000,-4.94258,-4.97696,0.00000,0.00000
4.5900,459,240,0,0,0.00998,0.01038,0.02491,0.02689,0.69837,0.70139,0.70210,0.69775,0.00000,0.00000,2.00000,2.00000,-4.92660,-4.97288,0.00000,0.00000
4.6000,460,240,0,0,0.01033,0.00989,0.02666,0.02443,0.69756,0.70117,0.70152,0.69953,0.00000,0.00000,2.00000,2.00000,-4.92881,-4.97130,0.00000,0.00000
4.6100,461,240,0,0,0.01040,0.01028,0.02701,0.02640,0.69824,0.70103,0.70226,0.70074,0.00000,0.00000,2.00000,2.00000,-4.91954,-4.98061,0.00000,0.00000
4.6200,462,240,0,0,0.01033,0.01057,0.02664,0.02783,0.69962,0.69950,0.70390,0.70077,0.00000,0.00000,2.00000,2.00000,-4.90545,-4.98044,0.00000,0.00000
4.6300,463,240,0,0,0.01065,0.01060,0.02823,0.02802,0.69679,0.69848,0.70477,0.70012,0.00000,0.00000,2.00000,2.00000,-4.89635,-4.98988,0.00000,0.00000
4.6400,464,240,0,0,0.01052,0.01061,0.02760,0.02806,0.69797,0.69801,0.70405,0.70159,0.00000,0.00000,2.00000,2.00000,-4.90594,-4.98879,0.00000,0.00000
4.6500,465,240,0,0,0.01048,0.01040,0.02742,0.02698,0.69948,0.69991,0.70305,0.70077,0.00000,0.00000,2.00000,2.00000,-4.90714,-4.98483,0.00000,0.00000
4.6600,466,240,0,0,0.01036,0.01066,0.02682,0.02830,0.69903,0.70156,0.70072,0.70188,0.00000,0.00000,2.00000,2.00000,-4.89904,-4.96971,0.00000,0.00000
4.6700,467,240,0,0,0.01044,0.01008,0.02722,0.02542,0.70008,0.70187,0.70207,0.70131,0.00000,0.00000,2.00000,2.00000,-4.91200,-4.96351,0.00000,0.00000
4.6800,468,240,0,0,0.01008,0.01043,0.02538,0.02713,0.69779,0.70234,0.70001,0.69928,0.00000,0.00000,2.00000,2.00000,-4.90775,-4.94746,0.00000,0.00000
4.6900,469,240,0,0,0.01064,0.01048,0.02819,0.02740,0.69767,0.70419,0.70013,0.69739,0.00000,0.00000,2.00000,2.00000,-4.90647,-4.95000,0.00000,0.00000
4.7000,470,240,0,0,0.01027,0.01068,0.02635,0.02842,0.69661,0.70270,0.69896,0.70032,0.00000,0.00000,2.00000,2.00000,-4.88928,-4.95971,0.00000,0.00000
4.7100,471,240,0,0,0.01051,0.01069,0.02754,0.02843,0.69728,0.70016,0.69708,0.70221,0.00000,0.00000,2.00000,2.00000,-4.88397,-4.96693,0.00000,0.00000
4.7200,472,240,0,0,0.01058,0.01039,0.02788,0.02696,0.69841,0.70117,0.69801,0.70246,0.00000,0.00000,2.00000,2.00000,-4.89904,-4.96730,0.00000,0.00000
4.7300,473,240,0,0,0.01095,0.01048,0.02976,0.02739,0.69615,0.70216,0.69703,0.70059,0.00000,0.00000,2.00000,2.00000,-4.91397,-4.96389,0.00000,0.00000
4.7400,474,240,0,0,0.01069,0.01051,0.02845,0.02753,0.69511,0.70350,0.69718,0.69732,0.00000,0.00000,2.00000,2.00000,-4.92525,-4.95640,0.00000,0.00000
4.7500,475,240,0,0,0.01041,0.01012,0.02707,0.02560,0.69767,0.70193,0.69996,0.69650,0.00000,0.00000,2.00000,2.00000,-4.93003,-4.95292,0.00000,0.00000
4.7600,476,240,0,0,0.01035,0.00995,0.02674,0.02475,0.69928,0.70147,0.70095,0.69744,0.00000,0.00000,2.00000,2.00000,-4.93593,-4.96605,0.00000,0.00000
4.7700,477,240,0,0,0.01027,0.01013,0.02634,0.02564,0.69925,0.70103,0.70040,0.69916,0.00000,0.00000,2.00000,2.00000,-4.93047,-4.96466,0.00000,0.00000
4.7800,478,240,0,0,0.01033,0.01020,0.02664,0.02602,0.69830,0.70344,0.70282,0.69878,0.00000,0.00000,2.00000,2.00000,-4.93174,-4.97109,0.00000,0.00000
4.7900,479,240,0,0,0.01022,0.01047,0.02611,0.02737,0.69684,0.70156,0.70228,0.69782,0.00000,0.00000,2.00000,2.00000,-4.94375,-4.97515,0.00000,0.00000
4.8000,480,240,0,0,0.01047,0.01017,0.02734,0.02584,0.70195,0.70156,0.70324,0.70002,0.00000,0.00000,2.00000,2.00000,-4.94958,-4.97902,0.00000,0.00000
4.8100,481,240,0,0,0.01012,0.00998,0.02559,0.02488,0.70214,0.70264,0.70389,0.70231,0.00000,0.00000,2.00000,2.00000,-4.95756,-4.98667,0.00000,0.00000
4.8200,482,240,0,0,0.01064,0.01009,0.02820,0.02546,0.70220,0.70168,0.70519,0.70321,0.00000,0.00000,2.00000,2.00000,-4.95792,-4.98866,0.00000,0.00000
4.8300,483,240,0,0,0.01060,0.01029,0.02802,0.02644,0.70386,0.69977,0.70184,0.70113,0.00000,0.00000,2.00000,2.00000,-4.94939,-4.97712,0.00000,0.00000
4.8400,484,240,0,0,0.01078,0.01005,0.02889,0.02524,0.70339,0.69550,0.70292,0.70254,0.00000,0.00000,2.00000,2.00000,-4.95540,-4.96857,0.00000,0.00000
4.8500,485,240,0,0,0.01073,0.01018,0.02865,0.02589,0.70162,0.69753,0.70301,0.70333,0.00000,0.00000,2.00000,2.00000,-4.95196,-4.96377,0.00000,0.00000
4.8600,486,240,0,0,0.01096,0.00994,0.02982,0.02471,0.70063,0.69671,0.70167,0.70329,0.00000,0.00000,2.00000,2.00000,-4.94781,-4.95828,0.00000,0.00000
4.8700,487,240,0,0,0.01061,0.01044,0.02803,0.02719,0.70023,0.69598,0.70149,0.70175,0.00000,0.00000,2.00000,2.00000,-4.94371,-4.94449,0.00000,0.00000
4.8800,488,240,0,0,0.01036,0.01055,0.02681,0.02773,0.69968,0.69586,0.69885,0.70137,0.00000,0.00000,2.00000,2.00000,-4.93834,-4.94325,0.00000,0.00000
4.8900,489,240,0,0,0.01032,0.01054,0.02658,0.02772,0.69778,0.69415,0.70227,0.69913,0.00000,0.00000,2.00000,2.00000,-4.95250,-4.95385,0.00000,0.00000
4.9000,490,240,0,0,0.01025,0.01002,0.02624,0.02509,0.69801,0.69255,0.70106,0.70008,0.00000,0.00000,2.00000,2.00000,-4.95860,-4.94425,0.00000,0.00000
4.9100,491,240,0,0,0.01010,0.01036,0.02550,0.02681,0.69867,0.69903,0.70354,0.69847,0.00000,0.00000,2.00000,2.00000,-4.96526,-4.95346,0.00000,0.00000
4.9200,492,240,0,0,0.01018,0.01058,0.02591,0.02788,0.70037,0.69949,0.70384,0.70052,0.00000,0.00000,2.00000,2.00000,-4.96975,-4.95834,0.00000,0.00000
4.9300,493,240,0,0,0.01039,0.01080,0.02696,0.02902,0.69988,0.70072,0.70190,0.70065,0.00000,0.00000,2.00000,2.00000,-4.96317,-4.95723,0.00000,0.00000
4.9400,494,240,0,0,0.01024,0.01086,0.02622,0.02928,0.69895,0.70287,0.69826,0.69886,0.00000,0.00000,2.00000,2.00000,-4.95515,-4.96611,0.00000,0.00000
4.9500,495,240,0,0,0.01063,0.01031,0.02813,0.02657,0.69714,0.70152,0.69949,0.70166,0.00000,0.00000,2.00000,2.00000,-4.96221,-4.97787,0.00000,0.00000
4.9600,496,240,0,0,0.01023,0.01026,0.02614,0.02629,0.69886,0.69815,0.70150,0.70366,0.00000,0.00000,2.00000,2.00000,-4.97110,-4.98686,0.00000,0.00000
4.9700,497,240,0,0,0.01038,0.01061,0.02691,0.02805,0.70039,0.69805,0.69858,0.70344,0.00000,0.00000,2.00000,2.00000,-4.97794,-4.99996,0.00000,0.00000
4.9800,498,240,0,0,0.01019,0.01022,0.02596,0.02612,0.69932,0.69899,0.69697,0.69869,0.00000,0.00000,2.00000,2.00000,-4.99180,-5.01621,0.00000,0.00000
4.9900,499,240,0,0,0.01031,0.01027,0.02657,0.02635,0.69857,0.69925,0.69653,0.70225,0.00000,0.00000,2.00000,2.00000,-4.98489,-5.02323,0.00000,0.00000
5.0000,500,240,0,0,0.01037,0.01048,0.02685,0.02738,0.70271,0.69707,0.69963,0.70404,0.00000,0.00000,2.00000,2.00000,-4.98315,-5.03745,0.00000,0.00000
5.0100,501,240,0,0,0.01022,0.01051,0.02608,0.02756,0.70206,0.69720,0.69993,0.70351,0.00000,0.00000,2.00000,2.00000,-4.96733,-5.04939,0.00000,0.00000
5.0200,502,240,0,0,0.01032,0.01059,0.02662,0.02794,0.70179,0.69798,0.69656,0.70260,0.00000,0.00000,2.00000,2.00000,-4.95776,-5.04903,0.00000,0.00000
5.0300,503,240,0,0,0.01007,0.01041,0.02533,0.02704,0.70209,0.69907,0.69454,0.70253,0.00000,0.00000,2.00000,2.00000,-4.94689,-5.04098,0.00000,0.00000
5.0400,504,240,0,0,0.01049,0.01067,0.02747,0.02834,0.70150,0.69799,0.69365,0.70412,0.00000,0.00000,2.00000,2.00000,-4.93866,-5.03818,0.00000,0.00000
5.0500,505,240,0,0,0.01046,0.01064,0.02728,0.02821,0.69655,0.70258,0.69297,0.70265,0.00000,0.00000,2.00000,2.00000,-4.92883,-5.03935,0.00000,0.00000
5.0600,506,240,0,0,0.01051,0.01053,0.02757,0.02765,0.69688,0.70185,0.69426,0.70326,0.00000,0.00000,2.00000,2.00000,-4.91968,-5.05035,0.00000,0.00000
5.0700,507,240,0,0,0.01024,0.01024,0.02620,0.02619,0.69906,0.70189,0.69518,0.70136,0.00000,0.00000,2.00000,2.00000,-4.92223,-5.04477,0.00000,0.00000
5.0800,508,240,0,0,0.01002,0.01039,0.02508,0.02696,0.70267,0.70212,0.69615,0.69883,0.00000,0.00000,2.00000,2.00000,-4.92335,-5.04588,0.00000,0.00000
5.0900,509,240,0,0,0.00976,0.01034,0.02380,0.02670,0.70251,0.69962,0.69935,0.69925,0.00000,0.00000,2.00000,2.00000,-4.91903,-5.04351,0.00000,0.00000
5.1000,510,240,0,0,0.00984,0.01020,0.02421,0.02601,0.70077,0.69883,0.69827,0.69748,0.00000,0.00000,2.00000,2.00000,-4.91256,-5.03533,0.00000,0.00000
5.1100,511,240,0,0,0.01021,0.01043,0.02603,0.02715,0.70535,0.70099,0.69815,0.69572,0.00000,0.00000,2.00000,2.00000,-4.91311,-5.01560,0.00000,0.00000
5.1200,512,240,0,0,0.01025,0.01051,0.02626,0.02757,0.70498,0.70036,0.69799,0.69599,0.00000,0.00000,2.00000,2.00000,-4.91182,-4.99285,0.00000,0.00000
5.1300,513,240,0,0,0.01010,0.01057,0.02550,0.02785,0.70474,0.70183,0.69834,0.69771,0.00000,0.00000,2.00000,2.00000,-4.91505,-4.98640,0.00000,0.00000
5.1400,514,240,0,0,0.01006,0.01047,0.02529,0.02736,0.70065,0.69822,0.69751,0.69747,0.00000,0.00000,2.00000,2.00000,-4.92399,-4.97519,0.00000,0.00000
5.1500,515,240,0,0,0.01030,0.01049,0.02651,0.02747,0.70054,0.70259,0.69942,0.69911,0.00000,0.00000,2.00000,2.00000,-4.92335,-4.96272,0.00000,0.00000
5.1600,516,240,0,0,0.01012,0.01040,0.02562,0.02701,0.69888,0.70230,0.69933,0.69956,0.00000,0.00000,2.00000,2.00000,-4.94053,-4.95299,0.00000,0.00000
5.1700,517,240,0,0,0.01031,0.01074,0.02653,0.02871,0.69945,0.70014,0.70052,0.70119,0.00000,0.00000,2.00000,2.00000,-4.95573,-4.96650,0.00000,0.00000
5.1800,518,240,0,0,0.01038,0.01055,0.02690,0.02775,0.70039,0.70094,0.69787,0.70341,0.00000,0.00000,2.00000,2.00000,-4.95808,-4.96662,0.00000,0.00000
5.1900,519,240,0,0,0.01049,0.01064,0.02743,0.02821,0.70116,0.69923,0.69747,0.70321,0.00000,0.00000,2.00000,2.00000,-4.97173,-4.99132,0.00000,0.00000
5.2000,520,240,0,0,0.01072,0.01060,0.02860,0.02799,0.69849,0.69841,0.69761,0.70216,0.00000,0.00000,2.00000,2.00000,-4.98005,-5.00078,0.00000,0.00000
5.2100,521,240,0,0,0.01043,0.01045,0.02717,0.02723,0.69860,0.69663,0.69706,0.70437,0.00000,0.00000,2.00000,2.00000,-4.99211,-4.99499,0.00000,0.00000
5.2200,522,240,0,0,0.00994,0.01059,0.02470,0.02793,0.69997,0.69955,0.70060,0.70763,0.00000,0.00000,2.00000,2.00000,-4.99644,-5.01890,0.00000,0.00000
5.2300,523,240,0,0,0.01036,0.01039,0.02678,0.02693,0.70211,0.69853,0.70308,0.70720,0.00000,0.00000,2.00000,2.00000,-5.01067,-5.01831,0.00000,0.00000
5.2400,524,240,0,0,0.01030,0.01005,0.02649,0.02526,0.70168,0.70197,0.70389,0.70586,0.00000,0.00000,2.00000,2.00000,-5.02309,-5.01556,0.00000,0.00000
5.2500,525,240,0,0,0.01003,0.01007,0.02515,0.02537,0.70002,0.70184,0.70318,0.70429,0.00000,0.00000,2.00000,2.00000,-5.02580,-5.02265,0.00000,0.00000
5.2600,526,240,0,0,0.01043,0.00985,0.02713,0.02426,0.70178,0.69888,0.70214,0.70187,0.00000,0.00000,2.00000,2.00000,-5.03745,-5.02071,0.00000,0.00000
5.2700,527,240,0,0,0.01077,0.00977,0.02886,0.02383,0.69863,0.69964,0.70265,0.70285,0.00000,0.00000,2.00000,2.00000,-5.05171,-5.02142,0.00000,0.00000
5.2800,528,240,0,0,0.01110,0.00991,0.03050,0.02456,0.69736,0.70005,0.70158,0.70297,0.00000,0.00000,2.00000,2.00000,-5.05102,-5.03391,0.00000,0.00000
5.2900,529,240,0,0,0.01115,0.00996,0.03076,0.02482,0.69685,0.70082,0.69735,0.70480,0.00000,0.00000,2.00000,2.00000,-5.04495,-5.04452,0.00000,0.00000
5.3000,530,240,0,0,0.01075,0.01017,0.02877,0.02585,0.69749,0.69986,0.69610,0.70288,0.00000,0.00000,2.00000,2.00000,-5.02530,-5.04490,0.00000,0.00000
5.3100,531,240,0,0,0.01056,0.01029,0.02782,0.02643,0.69722,0.70168,0.69549,0.70287,0.00000,0.00000,2.00000,2.00000,-5.01852,-5.05477,0.00000,0.00000
5.3200,532,240,0,0,0.01065,0.01020,0.02825,0.02598,0.69676,0.69764,0.69528,0.70408,0.00000,0.00000,2.00000,2.00000,-5.01460,-5.06874,0.00000,0.00000
5.3300,533,240,0,0,0.01096,0.01018,0.02979,0.02588,0.69663,0.70006,0.69726,0.70339,0.00000,0.00000,2.00000,2.00000,-5.00762,-5.06961,0.00000,0.00000
5.3400,534,240,0,0,0.01057,0.00998,0.02785,0.02489,0.69494,0.69823,0.69766,0.70089,0.00000,0.00000,2.00000,2.00000,-5.02332,-5.06816,0.00000,0.00000
5.3500,535,240,0,0,0.01055,0.00989,0.02777,0.02443,0.69446,0.69957,0.69784,0.70226,0.00000,0.00000,2.00000,2.00000,-5.02603,-5.06528,0.00000,0.00000
5.3600,536,240,0,0,0.01029,0.00993,0.02646,0.02464,0.69374,0.70133,0.70050,0.70136,0.00000,0.00000,2.00000,2.00000,-5.03484,-5.06653,0.00000,0.00000
5.3700,537,240,0,0,0.01015,0.00999,0.02573,0.02497,0.69503,0.70157,0.70271,0.69719,0.00000,0.00000,2.00000,2.00000,-5.04195,-5.06049,0.00000,0.00000
5.3800,538,240,0,0,0.01029,0.00995,0.02645,0.02475,0.69661,0.70252,0.70298,0.70082,0.00000,0.00000,2.00000,2.00000,-5.04707,-5.06560,0.00000,0.00000
5.3900,539,240,0,0,0.01048,0.01018,0.02739,0.02590,0.69818,0.70367,0.70336,0.70117,0.00000,0.00000,2.00000,2.00000,-5.04879,-5.06056,0.00000,0.00000
5.4000,540,240,0,0,0.01060,0.01038,0.02800,0.02688,0.69588,0.70281,0.70356,0.70245,0.00000,0.00000,2.00000,2.00000,-5.05296,-5.06722,0.00000,0.00000
5.4100,541,240,0,0,0.01080,0.01001,0.02898,0.02507,0.69342,0.70424,0.70376,0.70123,0.00000,0.00000,2.00000,2.00000,-5.06396,-5.07360,0.00000,0.00000
5.4200,542,240,0,0,0.01095,0.01003,0.02976,0.02513,0.69423,0.70264,0.70136,0.70084,0.00000,0.00000,2.00000,2.00000,-5.06637,-5.07995,0.00000,0.00000
5.4300,543,240,0,0,0.01079,0.00985,0.02895,0.02425,0.69667,0.69917,0.70218,0.70049,0.00000,0.00000,2.00000,2.00000,-5.05296,-5.08105,0.00000,0.00000
5.4400,544,240,0,0,0.01067,0.00977,0.02833,0.02386,0.69810,0.69904,0.69992,0.70095,0.00000,0.00000,2.00000,2.00000,-5.05451,-5.08803,0.00000,0.00000
5.4500,545,240,0,0,0.01089,0.00961,0.02944,0.02303,0.69836,0.69851,0.70207,0.70157,0.00000,0.00000,2.00000,2.00000,-5.05898,-5.07727,0.00000,0.00000
5.4600,546,240,0,0,0.01075,0.00985,0.02873,0.02427,0.69720,0.69848,0.70246,0.70136,0.00000,0.00000,2.00000,2.00000,-5.05108,-5.08695,0.00000,0.00000
5.4700,547,240,0,0,0.01087,0.00999,0.02933,0.02493,0.69936,0.70024,0.70295,0.70198,0.00000,0.00000,2.00000,2.00000,-5.06112,-5.09311,0.00000,0.00000
5.4800,548,240,0,0,0.01085,0.01032,0.02923,0.02660,0.69831,0.70147,0.70292,0.70340,0.00000,0.00000,2.00000,2.00000,-5.06954,-5.09546,0.00000,0.00000
5.4900,549,240,0,0,0.01089,0.01058,0.02947,0.02790,0.70229,0.70155,0.70143,0.70276,0.00000,0.00000,2.00000,2.00000,-5.08346,-5.10259,0.00000,0.00000
5.5000,550,240,0,0,0.01075,0.01047,0.02875,0.02736,0.70215,0.70246,0.70240,0.70352,0.00000,0.00000,2.00000,2.00000,-5.07953,-5.10347,0.00000,0.00000
5.5100,551,240,0,0,0.01110,0.01062,0.03050,0.02808,0.70458,0.69895,0.70247,0.70129,0.00000,0.00000,2.00000,2.00000,-5.08305,-5.10019,0.00000,0.00000
5.5200,552,240,0,0,0.01153,0.01029,0.03266,0.02647,0.70247,0.69867,0.70112,0.70016,0.00000,0.00000,2.00000,2.00000,-5.07378,-5.08758,0.00000,0.00000
5.5300,553,240,0,0,0.01125,0.00955,0.03123,0.02277,0.70172,0.69771,0.69973,0.70004,0.00000,0.00000,2.00000,2.00000,-5.06808,-5.09612,0.00000,0.00000
5.5400,554,240,0,0,0.01091,0.00972,0.02954,0.02358,0.70192,0.69771,0.69851,0.69885,0.00000,0.00000,2.00000,2.00000,-5.06645,-5.10746,0.00000,0.00000
5.5500,555,240,0,0,0.01077,0.01040,0.02885,0.02699,0.70042,0.69730,0.70124,0.69573,0.00000,0.00000,2.00000,2.00000,-5.06052,-5.11105,0.00000,0.00000
5.5600,556,240,0,0,0.01063,0.01035,0.02814,0.02677,0.70024,0.69746,0.70008,0.69704,0.00000,0.00000,2.00000,2.00000,-5.05588,-5.10843,0.00000,0.00000
5.5700,557,240,0,0,0.01070,0.01038,0.02851,0.02689,0.70305,0.69605,0.69837,0.69604,0.00000,0.00000,2.00000,2.00000,-5.04285,-5.10805,0.00000,0.00000
5.5800,558,240,0,0,0.01038,0.01056,0.02692,0.02778,0.70312,0.69986,0.70082,0.69414,0.00000,0.00000,2.00000,2.00000,-5.03734,-5.08432,0.00000,0.00000
5.5900,559,240,0,0,0.01068,0.01058,0.02840,0.02791,0.70228,0.69878,0.70159,0.69670,0.00000,0.00000,2.00000,2.00000,-5.04226,-5.07922,0.00000,0.00000
5.6000,560,240,0,0,0.01019,0.01024,0.02597,0.02622,0.70079,0.70175,0.70102,0.69569,0.00000,0.00000,2.00000,2.00000,-5.05094,-5.07242,0.00000,0.00000
5.6100,561,240,0,0,0.00986,0.01030,0.02432,0.02650,0.70090,0.69748,0.69917,0.69599,0.00000,0.00000,2.00000,2.00000,-5.05114,-5.06580,0.00000,0.00000
5.6200,562,240,0,0,0.00996,0.01043,0.02481,0.02717,0.69884,0.69932,0.70166,0.70065,0.00000,0.00000,2.00000,2.00000,-5.04606,-5.06380,0.00000,0.00000
5.6300,563,240,0,0,0.00988,0.01018,0.02440,0.02589,0.69720,0.69851,0.70170,0.70084,0.00000,0.00000,2.00000,2.00000,-5.04048,-5.05731,0.00000,0.00000
5.6400,564,240,0,0,0.01012,0.01004,0.02561,0.02520,0.69672,0.69627,0.69970,0.69866,0.00000,0.00000,2.00000,2.00000,-5.04069,-5.05264,0.00000,0.00000
5.6500,565,240,0,0,0.01018,0.00988,0.02592,0.02441,0.69760,0.69392,0.69978,0.69720,0.00000,0.00000,2.00000,2.00000,-5.03869,-5.03403,0.00000,0.00000
5.6600,566,240,0,0,0.01034,0.01019,0.02668,0.02595,0.69644,0.69574,0.69857,0.69751,0.00000,0.00000,2.00000,2.00000,-5.02718,-5.02054,0.00000,0.00000
5.6700,567,240,0,0,0.01045,0.01003,0.02723,0.02517,0.69522,0.69855,0.69811,0.70151,0.00000,0.00000,2.00000,2.00000,-5.01595,-5.02460,0.00000,0.00000
5.6800,568,240,0,0,0.01043,0.01046,0.02715,0.02729,0.69750,0.69753,0.69958,0.70144,0.00000,0.00000,2.00000,2.00000,-5.00750,-5.02497,0.00000,0.00000
5.6900,569,240,0,0,0.01053,0.01022,0.02763,0.02609,0.69508,0.69793,0.69971,0.70439,0.00000,0.00000,2.00000,2.00000,-4.99170,-5.02447,0.00000,0.00000
5.7000,570,240,0,0,0.00956,0.00990,0.02278,0.02449,0.50357,0.50880,0.69958,0.70388,0.60000,0.00000,2.00000,2.00000,-3.19895,-5.01716,0.00000,0.00000
5.7100,571,240,0,0,0.00877,0.00992,0.01886,0.02459,0.36557,0.37040,0.69874,0.70295,0.60578,0.00000,3.00000,2.00000,-1.73637,-4.99622,0.00000,0.00000
5.7200,572,240,0,0,0.00859,0.01004,0.01796,0.02519,0.26284,0.27211,0.70062,0.70272,0.61156,0.00000,3.00000,2.00000,-0.51411,-4.99545,0.00000,0.00000
5.7300,573,240,0,0,0.00815,0.01017,0.01575,0.02583,0.19304,0.19948,0.70098,0.70078,0.61734,0.00000,3.00000,2.00000,0.54530,-4.99153,0.00000,0.00000
5.7400,574,240,0,0,0.00827,0.01036,0.01637,0.02680,0.13983,0.14622,0.70110,0.70154,0.62312,0.00000,3.00000,2.00000,1.50392,-4.98907,0.00000,0.00000
5.7500,575,240,0,0,0.00793,0.01036,0.01463,0.02679,0.10501,0.10886,0.70121,0.70184,0.62890,0.00000,3.00000,2.00000,2.37376,-4.99975,0.00000,0.00000
5.7600,576,240,0,0,0.00758,0.01069,0.01290,0.02843,0.07812,0.07761,0.70156,0.70222,0.63468,0.00000,3.00000,2.00000,3.18188,-5.01265,0.00000,0.00000
5.7700,577,240,0,0,0.00743,0.01054,0.01213,0.02770,0.05589,0.05714,0.70290,0.70325,0.64046,0.00000,3.00000,2.00000,3.97389,-5.01022,0.00000,0.00000
5.7800,578,240,0,0,0.00734,0.01021,0.01169,0.02607,0.03820,0.04179,0.70042,0.70109,0.64624,0.00000,3.00000,2.00000,4.75671,-5.01836,0.00000,0.00000
5.7900,579,240,0,0,0.00741,0.01042,0.01203,0.02710,0.02593,0.03162,0.69764,0.69712,0.65202,0.00000,3.00000,2.00000,5.53609,-5.00614,0.00000,0.00000
5.8000,580,240,0,0,0.00728,0.01067,0.01140,0.02833,0.01762,0.02046,0.69870,0.69758,0.65780,0.00000,3.00000,2.00000,6.30791,-5.00774,0.00000,0.00000
5.8100,581,240,0,0,0.00761,0.01053,0.01306,0.02766,0.01242,0.01460,0.69930,0.69902,0.66358,0.00000,3.00000,2.00000,7.08510,-5.01449,0.00000,0.00000
5.8200,582,240,0,0,0.00719,0.00998,0.01096,0.02491,0.00980,0.01193,0.69698,0.70015,0.66936,0.00000,3.00000,2.00000,7.86468,-5.02246,0.00000,0.00000
5.8300,583,240,0,0,0.00716,0.00974,0.01078,0.02370,0.00898,0.01021,0.69918,0.69844,0.67514,0.00000,3.00000,2.00000,8.65621,-5.01852,0.00000,0.00000
5.8400,584,240,0,0,0.00699,0.00995,0.00996,0.02473,0.00286,0.00985,0.70178,0.69753,0.68092,0.00000,3.00000,2.00000,9.46724,-5.01160,0.00000,0.00000
5.8500,585,240,0,0,0.00696,0.01012,0.00979,0.02562,0.00473,0.00834,0.70298,0.70012,0.68670,0.00000,3.00000,2.00000,10.29230,-4.98798,0.00000,0.00000
5.8600,586,240,0,0,0.00671,0.00996,0.00853,0.02478,0.00507,0.00406,0.70274,0.69929,0.69248,0.00000,3.00000,2.00000,11.13792,-4.97774,0.00000,0.00000
5.8700,587,240,0,0,0.00703,0.00998,0.01013,0.02492,0.00249,0.00155,0.70015,0.69735,0.69826,0.00000,3.00000,2.00000,11.99537,-4.98943,0.00000,0.00000
5.8800,588,240,0,0,0.00708,0.01006,0.01040,0.02528,0.00244,0.00287,0.70239,0.69748,0.70404,0.00000,3.00000,2.00000,12.85839,-4.99155,0.00000,0.00000
5.8900,589,240,0,0,0.00719,0.00991,0.01096,0.02456,0.00202,0.00049,0.70452,0.70009,0.70982,0.00000,3.00000,2.00000,13.72376,-4.99502,0.00000,0.00000
5.9000,590,240,0,0,0.00725,0.01018,0.01125,0.02590,0.00000,0.00002,0.70355,0.70141,0.71560,0.00000,3.00000,2.00000,14.60243,-4.99048,0.00000,0.00000
5.9100,591,240,0,0,0.00744,0.01064,0.01219,0.02818,0.00000,0.00000,0.70486,0.69881,0.72138,0.00000,3.00000,2.00000,15.49144,-4.99172,0.00000,0.00000
5.9200,592,240,0,0,0.00773,0.01027,0.01363,0.02635,0.00000,0.00311,0.70189,0.69813,0.72716,0.00000,3.00000,2.00000,16.39575,-4.99778,0.00000,0.00000
5.9300,593,240,0,0,0.00825,0.01035,0.01625,0.02676,0.00000,0.00212,0.70182,0.69771,0.73294,0.00000,3.00000,2.00000,17.30187,-4.98702,0.00000,0.00000
5.9400,594,240,0,0,0.00780,0.00996,0.01401,0.02480,0.00000,0.00125,0.70007,0.69980,0.73872,0.00000,3.00000,2.00000,18.21134,-4.99071,0.00000,0.00000
5.9500,595,240,0,0,0.00779,0.00983,0.01395,0.02413,0.00000,0.00231,0.69840,0.70172,0.74450,0.00000,3.00000,2.00000,19.13154,-4.97768,0.00000,0.00000
5.9600,596,240,0,0,0.00799,0.00975,0.01496,0.02375,0.00000,0.00246,0.69787,0.70140,0.75028,0.00000,3.00000,2.00000,20.05985,-4.95816,0.00000,0.00000
5.9700,597,240,0,0,0.00763,0.01003,0.01316,0.02514,0.00000,0.00152,0.69939,0.69712,0.75606,0.00000,3.00000,2.00000,20.99776,-4.96091,0.00000,0.00000
5.9800,598,240,0,0,0.00761,0.01000,0.01303,0.02499,0.00000,0.00000,0.70233,0.69738,0.76184,0.00000,3.00000,2.00000,21.93505,-4.93973,0.00000,0.00000
5.9900,599,240,0,0,0.00760,0.00997,0.01300,0.02487,0.00000,0.00000,0.69957,0.69762,0.76762,0.00000,3.00000,2.00000,22.86561,-4.93255,0.00000,0.00000
6.0000,600,240,0,0,0.00783,0.01016,0.01415,0.02580,0.00000,0.00000,0.69795,0.69698,0.77340,0.00000,3.00000,2.00000,23.79027,-4.91753,0.00000,0.00000
6.0100,601,240,0,0,0.00769,0.01009,0.01345,0.02546,0.00014,0.00000,0.70079,0.70241,0.77918,0.00000,3.00000,2.00000,24.71436,-4.91462,0.00000,0.00000
6.0200,602,240,0,0,0.00787,0.00997,0.01437,0.02485,0.00000,0.00000,0.70391,0.70137,0.78496,0.00000,3.00000,2.00000,25.65178,-4.92376,0.00000,0.00000
6.0300,603,240,0,0,0.00823,0.00962,0.01615,0.02310,0.00000,0.00000,0.70420,0.70131,0.79074,0.00000,3.00000,2.00000,26.57460,-4.91627,0.00000,0.00000
6.0400,604,240,0,0,0.00841,0.00964,0.01705,0.02320,0.00027,0.00000,0.70432,0.70170,0.79652,0.00000,3.00000,2.00000,27.49581,-4.93023,0.00000,0.00000
6.0500,605,240,0,0,0.00886,0.00975,0.01928,0.02377,0.00000,0.00000,0.70441,0.70263,0.80230,0.00000,3.00000,2.00000,28.40570,-4.92107,0.00000,0.00000
6.0600,606,240,0,0,0.00976,0.00991,0.02381,0.02455,0.00032,0.00000,0.70209,0.70321,0.80808,0.00000,3.00000,2.00000,29.30680,-4.91293,0.00000,0.00000
6.0700,607,240,0,0,0.00999,0.01043,0.02493,0.02717,0.00032,0.00077,0.70305,0.70202,0.81386,0.00000,3.00000,2.00000,30.20495,-4.91192,0.00000,0.00000
6.0800,608,240,0,0,0.01055,0.01036,0.02775,0.02679,0.00098,0.00255,0.70031,0.70031,0.81964,0.00000,3.00000,2.00000,31.08720,-4.91503,0.00000,0.00000
6.0900,609,240,0,0,0.01091,0.01037,0.02956,0.02683,0.00069,0.00280,0.70067,0.69955,0.82542,0.00000,3.00000,2.00000,31.96244,-4.90639,0.00000,0.00000
6.1000,610,240,0,0,0.01147,0.01094,0.03233,0.02969,0.00000,0.00096,0.70070,0.69881,0.83120,0.00000,3.00000,2.00000,32.81088,-4.91512,0.00000,0.00000
6.1100,611,240,0,0,0.01181,0.01049,0.03405,0.02744,0.00206,0.00191,0.69917,0.69961,0.83698,0.00000,3.00000,2.00000,33.66166,-4.92620,0.00000,0.00000
6.1200,612,240,0,0,0.01234,0.01017,0.03668,0.02587,0.00517,0.00217,0.69889,0.69717,0.84276,0.00000,3.00000,2.00000,34.50979,-4.92894,0.00000,0.00000
6.1300,613,240,0,0,0.01255,0.01015,0.03773,0.02576,0.00590,0.00269,0.69847,0.70017,0.84854,0.00000,3.00000,2.00000,35.32192,-4.93667,0.00000,0.00000
6.1400,614,240,0,0,0.01288,0.01019,0.03939,0.02596,0.00654,0.00413,0.70045,0.69868,0.85432,0.00000,3.00000,2.00000,36.11773,-4.95206,0.00000,0.00000
6.1500,615,240,0,0,0.01377,0.01049,0.04387,0.02746,0.00257,0.00372,0.69966,0.69764,0.86010,0.00000,3.00000,2.00000,36.89084,-4.96062,0.00000,0.00000
6.1600,616,240,0,0,0.01432,0.01062,0.04659,0.02811,0.00243,0.00000,0.70009,0.69998,0.86588,0.00000,3.00000,2.00000,37.65559,-4.97640,0.00000,0.00000
6.1700,617,240,0,0,0.01459,0.01061,0.04794,0.02804,0.00227,0.00000,0.70096,0.70165,0.87166,0.00000,3.00000,2.00000,38.39119,-4.97110,0.00000,0.00000
6.1800,618,240,0,0,0.01451,0.01051,0.04753,0.02755,0.00259,0.00000,0.70231,0.70204,0.87744,0.00000,3.00000,2.00000,39.10942,-4.97863,0.00000,0.00000
6.1900,619,240,0,0,0.01500,0.01022,0.04998,0.02611,0.00346,0.00000,0.70164,0.70508,0.88322,0.00000,3.00000,2.00000,39.80730,-4.98155,0.00000,0.00000
6.2000,620,240,0,0,0.01546,0.01001,0.05229,0.02504,0.00103,0.00000,0.70264,0.70298,0.88900,0.00000,3.00000,2.00000,40.47790,-4.98221,0.00000,0.00000
6.2100,621,240,0,0,0.01571,0.01000,0.05354,0.02498,0.00000,0.00000,0.70330,0.70188,0.89478,0.00000,3.00000,2.00000,41.13636,-4.99344,0.00000,0.00000
6.2200,622,240,0,0,0.01543,0.01027,0.05215,0.02633,0.00000,0.00000,0.70248,0.70295,0.90056,0.00000,3.00000,2.00000,41.75628,-4.99566,0.00000,0.00000
6.2300,623,240,0,0,0.01496,0.01003,0.04978,0.02517,0.00000,0.00000,0.70108,0.70213,0.90634,0.00000,3.00000,2.00000,42.36710,-5.00547,0.00000,0.00000
6.2400,624,240,0,0,0.01490,0.01041,0.04949,0.02704,0.00000,0.00000,0.70100,0.69783,0.91212,0.00000,3.00000,2.00000,42.93729,-5.00626,0.00000,0.00000
6.2500,625,240,0,0,0.01427,0.01058,0.04637,0.02791,0.00000,0.00000,0.70060,0.69614,0.91790,0.00000,3.00000,2.00000,43.48582,-5.00911,0.00000,0.00000
6.2600,626,240,0,0,0.01432,0.01052,0.04661,0.02759,0.00000,0.00000,0.69984,0.69724,0.92368,0.00000,3.00000,2.00000,44.01203,-5.00144,0.00000,0.00000
6.2700,627,240,0,0,0.01399,0.01068,0.04496,0.02842,0.00000,0.00000,0.70013,0.69866,0.92946,0.00000,3.00000,2.00000,44.50305,-4.98862,0.00000,0.00000
6.2800,628,240,0,0,0.01311,0.01055,0.04055,0.02776,0.00000,0.00000,0.69848,0.70135,0.93524,0.00000,3.00000,2.00000,44.98087,-4.98645,0.00000,0.00000
6.2900,629,240,0,0,0.01284,0.01018,0.03922,0.02591,0.00000,0.00000,0.70088,0.70128,0.94102,0.00000,3.00000,2.00000,45.41516,-4.98629,0.00000,0.00000
6.3000,630,240,0,0,0.01207,0.01028,0.03534,0.02639,0.00000,0.00000,0.70198,0.70220,0.94680,0.00000,3.00000,2.00000,45.82264,-4.99247,0.00000,0.00000
6.3100,631,240,0,0,0.01156,0.01027,0.03278,0.02635,0.00000,0.00018,0.70274,0.69815,0.95258,0.00000,3.00000,2.00000,46.19574,-4.98794,0.00000,0.00000
6.3200,632,240,0,0,0.01103,0.01079,0.03017,0.02896,0.00000,0.00000,0.69952,0.70013,0.95836,0.00000,3.00000,2.00000,46.54187,-4.99198,0.00000,0.00000
6.3300,633,240,0,0,0.01041,0.01062,0.02707,0.02810,0.00000,0.00000,0.69874,0.69822,0.96414,0.00000,3.00000,2.00000,46.84697,-4.99943,0.00000,0.00000
6.3400,634,240,0,0,0.00999,0.01079,0.02493,0.02897,0.00000,0.00000,0.70140,0.69632,0.96992,0.00000,3.00000,2.00000,47.12648,-4.99559,0.00000,0.00000
6.3500,635,240,0,0,0.00958,0.01083,0.02288,0.02915,0.00000,0.00045,0.70125,0.69659,0.97570,0.00000,3.00000,2.00000,47.37379,-4.99604,0.00000,0.00000
6.3600,636,240,0,0,0.00926,0.01108,0.02132,0.03040,0.00000,0.00000,0.69651,0.69460,0.98148,0.00000,3.00000,2.00000,47.59321,-4.99057,0.00000,0.00000
6.3700,637,240,0,0,0.00919,0.01139,0.02093,0.03197,0.00039,0.00000,0.69804,0.69622,0.98726,0.00000,3.00000,2.00000,47.77393,-4.99630,0.00000,0.00000
6.3800,638,240,0,0,0.00878,0.01082,0.01888,0.02909,0.00514,0.00230,0.69588,0.69715,0.99304,0.00000,3.00000,2.00000,47.90911,-4.97362,0.00000,0.00000
6.3900,639,240,0,0,0.00818,0.01063,0.01589,0.02817,0.00323,0.00188,0.69847,0.69781,0.99882,0.00000,3.00000,2.00000,48.01534,-4.96664,0.00000,0.00000
6.4000,640,240,0,0,0.01075,0.01055,0.02876,0.02775,0.00258,0.04721,0.69826,0.69791,0.00452,0.00000,0.00000,2.00000,48.10207,-4.96756,0.00000,0.00000
6.4100,641,240,0,0,0.01271,0.01038,0.03854,0.02692,0.00346,0.12941,0.69676,0.69992,0.01020,0.00000,0.00000,2.00000,48.15310,-4.96442,0.00000,0.00000
6.4200,642,240,0,0,0.01445,0.01059,0.04726,0.02795,0.00091,0.24287,0.69579,0.69947,0.01588,0.00000,0.00000,2.00000,48.16486,-4.97132,0.00000,0.00000
6.4300,643,240,0,0,0.01651,0.01080,0.05754,0.02899,0.00000,0.38011,0.69734,0.69731,0.02156,0.00000,0.00000,2.00000,48.14168,-4.97707,0.00000,0.00000
6.4400,644,240,0,0,0.01830,0.01023,0.06652,0.02617,0.00000,0.52789,0.69667,0.69990,0.02725,0.00000,0.00000,2.00000,48.07593,-4.98603,0.00000,0.00000
6.4500,645,240,0,0,0.01993,0.01004,0.07465,0.02521,0.00000,0.68799,0.69578,0.70058,0.03293,0.00000,0.00000,2.00000,47.97425,-4.98180,0.00000,0.00000
6.4600,646,240,0,0,0.02198,0.01004,0.08489,0.02519,0.00075,0.85856,0.69771,0.69854,0.03861,0.00000,0.00000,2.00000,47.83325,-4.99411,0.00000,0.00000
6.4700,647,240,0,0,0.02345,0.01044,0.09227,0.02719,0.00027,1.03586,0.69975,0.69685,0.04429,0.00000,0.00000,2.00000,47.64898,-4.99693,0.00000,0.00000
6.4800,648,240,0,0,0.02499,0.01076,0.09994,0.02881,0.00000,1.16379,0.69983,0.69587,0.04998,0.00000,0.00000,2.00000,47.42419,-5.00357,0.00000,0.00000
6.4900,649,240,0,0,0.02666,0.01030,0.10832,0.02648,0.00000,1.25341,0.69878,0.69795,0.05566,0.00000,1.00000,2.00000,47.17331,-5.00392,0.00000,0.00000
6.5000,650,240,0,0,0.02863,0.01012,0.11815,0.02560,0.00029,1.32132,0.69959,0.69634,0.06134,0.00000,1.00000,2.00000,46.88345,-5.00203,0.00000,0.00000
6.5100,651,240,0,0,0.03018,0.01038,0.12589,0.02690,0.00000,1.36892,0.70035,0.69768,0.06702,0.00000,1.00000,2.00000,46.55458,-5.01855,0.00000,0.00000
6.5200,652,240,0,0,0.03147,0.01037,0.13235,0.02687,0.00016,1.40377,0.70367,0.69903,0.07270,0.00000,1.00000,2.00000,46.19177,-5.03178,0.00000,0.00000
6.5300,653,240,0,0,0.03271,0.01056,0.13853,0.02781,0.00000,1.43000,0.70351,0.70137,0.07839,0.00000,1.00000,2.00000,45.79519,-5.02753,0.00000,0.00000
6.5400,654,240,0,0,0.03370,0.01028,0.14350,0.02639,0.00219,1.44804,0.70309,0.69938,0.08407,0.00000,1.00000,2.00000,45.36590,-5.02760,0.00000,0.00000
6.5500,655,240,0,0,0.03506,0.01023,0.15028,0.02615,0.00091,1.46234,0.70419,0.69908,0.08975,0.00000,1.00000,2.00000,44.90104,-5.02616,0.00000,0.00000
6.5600,656,240,0,0,0.03646,0.01001,0.15731,0.02503,0.00013,1.47190,0.70331,0.69955,0.09543,0.00000,1.00000,2.00000,44.40570,-5.01589,0.00000,0.00000
6.5700,657,240,0,0,0.03691,0.00912,0.15957,0.02062,0.02985,1.47884,0.50866,0.83662,0.10112,0.60285,1.00000,3.00000,43.87087,-6.23898,0.00000,0.00000
6.5800,658,240,0,0,0.03797,0.00880,0.16483,0.01899,0.07902,1.48553,0.37073,0.91444,0.10680,0.60863,1.00000,3.00000,43.31849,-6.92734,0.00000,0.00000
6.5900,659,240,0,0,0.03848,0.00819,0.16742,0.01593,0.14300,1.49205,0.26790,0.94768,0.11248,0.61441,1.00000,3.00000,42.72569,-7.20685,0.00000,0.00000
6.6000,660,240,0,0,0.03876,0.00795,0.16882,0.01474,0.21972,1.49406,0.19593,0.94395,0.11816,0.62019,1.00000,3.00000,42.09195,-7.19119,0.00000,0.00000
6.6100,661,240,0,0,0.03897,0.00758,0.16986,0.01290,0.30481,1.49745,0.13805,0.91889,0.12384,0.62597,1.00000,3.00000,41.43288,-6.93934,0.00000,0.00000
6.6200,662,240,0,0,0.03906,0.00731,0.17028,0.01157,0.39692,1.49770,0.10228,0.86987,0.12953,0.63175,1.00000,3.00000,40.73946,-6.51807,0.00000,0.00000
6.6300,663,240,0,0,0.03934,0.00746,0.17172,0.01232,0.49045,1.49667,0.07316,0.81221,0.13521,0.63753,1.00000,3.00000,40.02436,-5.97784,0.00000,0.00000
6.6400,664,240,0,0,0.03911,0.00739,0.17054,0.01196,0.58581,1.49917,0.05106,0.74587,0.14089,0.64331,1.00000,3.00000,39.29444,-5.32186,0.00000,0.00000
6.6500,665,240,0,0,0.03889,0.00741,0.16944,0.01207,0.68675,1.49737,0.03723,0.67080,0.14657,0.64909,1.00000,3.00000,38.51803,-4.57905,0.00000,0.00000
6.6600,666,240,0,0,0.03795,0.00734,0.16475,0.01172,0.78961,1.49631,0.02771,0.58972,0.15226,0.65487,1.00000,3.00000,37.71404,-3.75986,0.00000,0.00000
6.6700,667,240,0,0,0.03729,0.00700,0.16147,0.01002,0.89022,1.49754,0.01943,0.50536,0.15794,0.66065,1.00000,3.00000,36.89199,-2.90101,0.00000,0.00000
6.6800,668,240,0,0,0.03636,0.00687,0.15682,0.00934,0.99502,1.49724,0.01380,0.42092,0.16362,0.66643,1.00000,3.00000,36.04852,-1.99491,0.00000,0.00000
6.6900,669,240,0,0,0.03510,0.00683,0.15052,0.00915,1.09716,1.50000,0.00890,0.33268,0.16930,0.67221,1.00000,3.00000,35.18561,-1.04035,0.00000,0.00000
6.7000,670,240,0,0,0.03384,0.00673,0.14420,0.00864,1.20580,1.50000,0.00869,0.24472,0.17498,0.67799,1.00000,3.00000,34.28812,-0.04032,0.00000,0.00000
6.7100,671,240,0,0,0.03274,0.00695,0.13870,0.00976,1.28606,1.49917,0.00638,0.17440,0.18067,0.68377,1.00000,3.00000,33.37297,0.99182,0.00000,0.00000
6.7200,672,240,0,0,0.03131,0.00736,0.13153,0.01178,1.34193,1.50000,0.00473,0.12428,0.18635,0.68955,1.00000,3.00000,32.44599,2.03929,0.00000,0.00000
6.7300,673,240,0,0,0.03004,0.00735,0.12521,0.01176,1.38545,1.50000,0.00305,0.08901,0.19203,0.69533,1.00000,3.00000,31.49452,3.11221,0.00000,0.00000
6.7400,674,240,0,0,0.02874,0.00713,0.11868,0.01065,1.41320,1.49785,0.00302,0.06798,0.19771,0.70111,1.00000,3.00000,30.54963,4.20766,0.00000,0.00000
6.7500,675,240,0,0,0.02727,0.00720,0.11135,0.01101,1.42709,1.49598,0.00330,0.04827,0.20340,0.70689,1.00000,3.00000,29.55174,5.31956,0.00000,0.00000
6.7600,676,240,0,0,0.02589,0.00707,0.10445,0.01035,1.43710,1.49530,0.00029,0.03714,0.20908,0.71267,1.00000,3.00000,28.55627,6.45790,0.00000,0.00000
6.7700,677,240,0,0,0.02455,0.00693,0.09775,0.00967,1.44086,1.49781,0.00050,0.02857,0.21476,0.71845,1.00000,3.00000,27.54757,7.61129,0.00000,0.00000
6.7800,678,240,0,0,0.02332,0.00731,0.09159,0.01157,1.44211,1.49577,0.00049,0.01953,0.22044,0.72423,1.00000,3.00000,26.52512,8.76145,0.00000,0.00000
6.7900,679,240,0,0,0.02188,0.00764,0.08440,0.01322,1.43845,1.49494,0.00097,0.01545,0.22612,0.73001,1.00000,3.00000,25.50161,9.93622,0.00000,0.00000
6.8000,680,240,0,0,0.02060,0.00807,0.07798,0.01536,1.43733,1.49984,0.00000,0.01351,0.23181,0.73579,1.00000,3.00000,24.46276,11.11589,0.00000,0.00000
6.8100,681,240,0,0,0.01944,0.00838,0.07220,0.01692,1.43204,1.50000,0.00000,0.00864,0.23749,0.74157,1.00000,3.00000,23.41658,12.30137,0.00000,0.00000
6.8200,682,240,0,0,0.01851,0.00853,0.06753,0.01764,1.42798,1.50000,0.00000,0.00217,0.24317,0.74735,1.00000,3.00000,22.37131,13.50382,0.00000,0.00000
6.8300,683,240,0,0,0.01720,0.00818,0.06098,0.01592,1.42185,1.50000,0.00000,0.00134,0.24885,0.75313,1.00000,3.00000,21.31420,14.70876,0.00000,0.00000
6.8400,684,240,0,0,0.01573,0.00841,0.05367,0.01705,1.41223,1.50000,0.00000,0.00122,0.25454,0.75891,1.00000,3.00000,20.25065,15.91459,0.00000,0.00000
6.8500,685,240,0,0,0.01480,0.00806,0.04899,0.01532,1.40332,1.50000,0.00000,0.00260,0.26022,0.76469,1.00000,3.00000,19.18086,17.11883,0.00000,0.00000
6.8600,686,240,0,0,0.01397,0.00801,0.04486,0.01503,1.39748,1.50000,0.00000,0.00109,0.26590,0.77047,1.00000,3.00000,18.12194,18.32550,0.00000,0.00000
6.8700,687,240,0,0,0.01315,0.00780,0.04073,0.01402,1.38575,1.49998,0.00000,0.00011,0.27158,0.77625,1.00000,3.00000,17.04926,19.53467,0.00000,0.00000
6.8800,688,240,0,0,0.01254,0.00817,0.03768,0.01585,1.37748,1.50000,0.00013,0.00000,0.27726,0.78203,1.00000,3.00000,15.99268,20.74623,0.00000,0.00000
6.8900,689,240,0,0,0.01159,0.00781,0.03294,0.01404,1.37104,1.50000,0.00000,0.00130,0.28295,0.78781,1.00000,3.00000,14.92684,21.95250,0.00000,0.00000
6.9000,690,240,0,0,0.01078,0.00825,0.02888,0.01623,1.36050,1.49837,0.00051,0.00058,0.28863,0.79359,1.00000,3.00000,13.88312,23.14085,0.00000,0.00000
6.9100,691,240,0,0,0.01017,0.00872,0.02586,0.01860,1.35063,1.49959,0.00000,0.00115,0.29431,0.79937,1.00000,3.00000,12.82985,24.32943,0.00000,0.00000
6.9200,692,240,0,0,0.00944,0.00895,0.02218,0.01973,1.33291,1.50000,0.00000,0.00118,0.29999,0.80515,1.00000,3.00000,11.78358,25.51507,0.00000,0.00000
6.9300,693,240,0,0,0.00895,0.00956,0.01976,0.02282,1.28941,1.50000,0.00000,0.00119,0.30568,0.81093,1.00000,3.00000,10.74462,26.66805,0.00000,0.00000
6.9400,694,240,0,0,0.00852,0.00999,0.01761,0.02497,1.22873,1.50000,0.00000,0.00115,0.31136,0.81671,1.00000,3.00000,9.71696,27.82002,0.00000,0.00000
6.9500,695,240,0,0,0.00862,0.01022,0.01809,0.02610,1.15634,1.49788,0.00000,0.00059,0.31704,0.82249,1.00000,3.00000,8.70555,28.95852,0.00000,0.00000
6.9600,696,240,0,0,0.00827,0.01086,0.01636,0.02930,1.07224,1.49713,0.00000,0.00000,0.32272,0.82827,1.00000,3.00000,7.69731,30.08099,0.00000,0.00000
6.9700,697,240,0,0,0.00773,0.01154,0.01367,0.03272,0.98075,1.49883,0.00000,0.00099,0.32840,0.83405,1.00000,3.00000,6.70388,31.19469,0.00000,0.00000
6.9800,698,240,0,0,0.00784,0.01222,0.01422,0.03609,0.88499,1.50000,0.00000,0.00157,0.33409,0.83983,1.00000,3.00000,5.72290,32.28243,0.00000,0.00000
6.9900,699,240,0,0,0.00791,0.01276,0.01455,0.03880,0.78840,1.50000,0.00000,0.00054,0.33977,0.84561,1.00000,3.00000,4.76938,33.35371,0.00000,0.00000
7.0000,700,240,0,0,0.00773,0.01321,0.01364,0.04106,0.69253,1.49805,0.00000,0.00000,0.34545,0.85139,1.00000,3.00000,3.82281,34.40114,0.00000,0.00000
7.0100,701,240,0,0,0.00748,0.01358,0.01239,0.04289,0.58842,1.49928,0.00000,0.00015,0.35113,0.85717,1.00000,3.00000,2.89633,35.43239,0.00000,0.00000
7.0200,702,240,0,0,0.00758,0.01405,0.01290,0.04523,0.48539,1.50000,0.00099,0.00000,0.35682,0.86295,1.00000,3.00000,2.00388,36.43745,0.00000,0.00000
7.0300,703,240,0,0,0.00722,0.01459,0.01112,0.04797,0.38011,1.50000,0.00271,0.00245,0.36250,0.86873,1.00000,3.00000,1.10924,37.42277,0.00000,0.00000
7.0400,704,240,0,0,0.00746,0.01488,0.01229,0.04942,0.27741,1.50000,0.00441,0.00077,0.36818,0.87451,1.00000,3.00000,0.23979,38.36697,0.00000,0.00000
7.0500,705,240,0,0,0.00746,0.01496,0.01231,0.04979,0.19894,1.49870,0.00452,0.00083,0.37386,0.88029,1.00000,3.00000,-0.59456,39.28767,0.00000,0.00000
7.0600,706,240,0,0,0.00771,0.01522,0.01353,0.05110,0.14221,1.49961,0.00529,0.00055,0.37954,0.88607,1.00000,3.00000,-1.40361,40.17155,0.00000,0.00000
7.0700,707,240,0,0,0.00765,0.01519,0.01323,0.05095,0.10161,1.49835,0.00370,0.00000,0.38523,0.89185,1.00000,3.00000,-2.18331,41.03031,0.00000,0.00000
7.0800,708,240,0,0,0.00788,0.01545,0.01439,0.05226,0.07578,1.49891,0.00298,0.00000,0.39091,0.89763,1.00000,3.00000,-2.94330,41.86632,0.00000,0.00000
7.0900,709,240,0,0,0.00784,0.01489,0.01418,0.04943,0.05345,1.49002,0.00000,0.00000,0.39659,0.90341,1.00000,3.00000,-3.67903,42.66794,0.00000,0.00000
7.1000,710,240,0,0,0.00764,0.01464,0.01321,0.04819,0.03923,1.45237,0.00087,0.00000,0.40227,0.90919,1.00000,3.00000,-4.38188,43.43508,0.00000,0.00000
7.1100,711,240,0,0,0.00783,0.01421,0.01415,0.04607,0.02427,1.40051,0.00178,0.00000,0.40796,0.91497,1.00000,3.00000,-5.07023,44.15978,0.00000,0.00000
7.1200,712,240,0,0,0.00755,0.01384,0.01273,0.04418,0.01786,1.33920,0.00162,0.00000,0.41364,0.92075,1.00000,3.00000,-5.72487,44.85272,0.00000,0.00000
7.1300,713,240,0,0,0.00736,0.01368,0.01178,0.04339,0.01240,1.27004,0.00017,0.00000,0.41932,0.92653,1.00000,3.00000,-6.34040,45.50827,0.00000,0.00000
7.1400,714,240,0,0,0.00707,0.01352,0.01037,0.04258,0.00788,1.19186,0.00000,0.00000,0.42500,0.93231,2.00000,3.00000,-6.91237,46.12685,0.00000,0.00000
7.1500,715,240,0,0,0.00704,0.01290,0.01019,0.03950,0.00547,1.11100,0.00000,0.00000,0.43068,0.93809,2.00000,3.00000,-7.47171,46.71145,0.00000,0.00000
7.1600,716,240,0,0,0.00716,0.01211,0.01081,0.03553,0.00298,1.02293,0.00000,0.00000,0.43637,0.94387,2.00000,3.00000,-7.99532,47.24991,0.00000,0.00000
7.1700,717,240,0,0,0.00734,0.01201,0.01172,0.03503,0.00217,0.93363,0.00000,0.00000,0.44205,0.94965,2.00000,3.00000,-8.48723,47.75757,0.00000,0.00000
7.1800,718,240,0,0,0.00712,0.01093,0.01058,0.02964,0.00015,0.84328,0.00000,0.00000,0.44773,0.95543,2.00000,3.00000,-8.94712,48.21880,0.00000,0.00000
7.1900,719,240,0,0,0.00729,0.01049,0.01147,0.02743,0.00000,0.75034,0.00000,0.00000,0.45341,0.96121,2.00000,3.00000,-9.37500,48.63542,0.00000,0.00000
7.2000,720,240,0,0,0.00703,0.00998,0.01016,0.02492,0.00000,0.66063,0.00000,0.00000,0.45910,0.96699,2.00000,3.00000,-9.75218,49.02303,0.00000,0.00000
7.2100,721,240,0,0,0.00692,0.00961,0.00961,0.02307,0.00000,0.56635,0.00000,0.00000,0.46478,0.97277,2.00000,3.00000,-10.09737,49.35983,0.00000,0.00000
7.2200,722,240,0,0,0.00719,0.00968,0.01095,0.02342,0.00000,0.47216,0.00000,0.00000,0.47046,0.97855,2.00000,3.00000,-10.41175,49.66229,0.00000,0.00000
7.2300,723,240,0,0,0.00716,0.00949,0.01079,0.02244,0.00003,0.37929,0.00000,0.00000,0.47614,0.98433,2.00000,3.00000,-10.68604,49.91365,0.00000,0.00000
7.2400,724,240,0,0,0.00701,0.00888,0.01004,0.01941,0.00126,0.28859,0.00000,0.00000,0.48182,0.99011,2.00000,3.00000,-10.92124,50.12154,0.00000,0.00000
7.2500,725,240,0,0,0.00712,0.00841,0.01059,0.01706,0.00126,0.21098,0.00000,0.00000,0.48751,0.99589,2.00000,3.00000,-11.12662,50.28868,0.00000,0.00000
7.2600,726,240,0,0,0.00709,0.00882,0.01046,0.01909,0.00000,0.15116,0.00000,0.17075,0.49319,0.00164,2.00000,0.00000,-11.29455,50.41084,0.00000,0.00000
7.2700,727,240,0,0,0.00708,0.00947,0.01038,0.02235,0.00000,0.10812,0.00092,0.34478,0.49887,0.00732,2.00000,0.00000,-11.42821,50.49703,0.00000,0.00000
7.2800,728,240,0,0,0.00746,0.01009,0.01228,0.02546,0.00000,0.07783,0.00109,0.51853,0.50455,0.01301,2.00000,0.00000,-11.51649,50.53715,0.00000,0.00000
7.2900,729,240,0,0,0.00739,0.01097,0.01194,0.02984,0.00000,0.05796,0.00189,0.69290,0.51024,0.01869,2.00000,0.00000,-11.55692,50.53595,0.00000,0.00000
7.3000,730,240,0,0,0.00726,0.01157,0.01129,0.03287,0.00153,0.04303,0.00254,0.86992,0.51592,0.02437,2.00000,0.00000,-11.57293,50.48968,0.00000,0.00000
7.3100,731,240,0,0,0.00721,0.01275,0.01105,0.03874,0.00239,0.03055,0.00000,1.04070,0.52160,0.03005,2.00000,0.00000,-11.54596,50.41254,0.00000,0.00000
7.3200,732,240,0,0,0.00750,0.01360,0.01249,0.04301,0.00256,0.01982,0.00000,1.16433,0.52728,0.03574,2.00000,0.00000,-11.47507,50.29304,0.00000,0.00000
7.3300,733,240,0,0,0.00733,0.01525,0.01167,0.05126,0.00249,0.01305,0.00128,1.25318,0.53296,0.04142,2.00000,0.00000,-11.36841,50.13306,0.00000,0.00000
7.3400,734,240,0,0,0.00724,0.01671,0.01122,0.05856,0.00081,0.00846,0.00055,1.32047,0.53865,0.04710,2.00000,0.00000,-11.22238,49.92601,0.00000,0.00000
7.3500,735,240,0,0,0.00716,0.01841,0.01079,0.06706,0.00044,0.00286,0.00000,1.36970,0.54433,0.05278,2.00000,1.00000,-11.03779,49.67964,0.00000,0.00000
7.3600,736,240,0,0,0.00747,0.02023,0.01237,0.07617,0.00059,0.00199,0.00147,1.40471,0.55001,0.05846,2.00000,1.00000,-10.81478,49.40031,0.00000,0.00000
7.3700,737,240,0,0,0.00769,0.02251,0.01347,0.08753,0.00000,0.00000,0.00058,1.43270,0.55569,0.06415,2.00000,1.00000,-10.55828,49.08074,0.00000,0.00000
7.3800,738,240,0,0,0.00780,0.02437,0.01398,0.09683,0.00000,0.00041,0.00000,1.45199,0.56138,0.06983,2.00000,1.00000,-10.26293,48.72683,0.00000,0.00000
7.3900,739,240,0,0,0.00796,0.02680,0.01482,0.10902,0.00000,0.00127,0.00113,1.46507,0.56706,0.07551,2.00000,1.00000,-9.92078,48.33197,0.00000,0.00000
7.4000,740,240,0,0,0.00786,0.02949,0.01428,0.12247,0.00046,0.00048,0.01384,1.47568,0.57274,0.08119,2.00000,1.00000,-9.55403,47.89679,0.00000,0.00000
7.4100,741,240,0,0,0.00832,0.03240,0.01661,0.13698,0.00230,0.00009,0.04318,1.48282,0.57842,0.08688,2.00000,1.00000,-9.14577,47.42172,0.00000,0.00000
7.4200,742,240,0,0,0.00790,0.03537,0.01451,0.15185,0.00000,0.00155,0.09081,1.48766,0.58410,0.09256,2.00000,1.00000,-8.70952,46.91472,0.00000,0.00000
7.4300,743,240,0,0,0.00770,0.03809,0.01352,0.16546,0.00000,0.00000,0.14984,1.49020,0.58979,0.09824,2.00000,1.00000,-8.22680,46.37137,0.00000,0.00000
7.4400,744,240,0,0,0.00775,0.04092,0.01376,0.17962,0.00000,0.00183,0.21579,1.49476,0.59547,0.10392,2.00000,1.00000,-7.70890,45.81040,0.00000,0.00000
7.4500,745,240,0,0,0.00745,0.04348,0.01224,0.19238,0.00000,0.00235,0.28822,1.49495,0.60115,0.10960,3.00000,1.00000,-7.16294,45.20301,0.00000,0.00000
7.4600,746,240,0,0,0.00750,0.04628,0.01251,0.20642,0.00000,0.00127,0.36216,1.49396,0.60683,0.11529,3.00000,1.00000,-6.58200,44.56815,0.00000,0.00000
7.4700,747,240,0,0,0.00752,0.04921,0.01261,0.22107,0.00012,0.00096,0.44115,1.49662,0.61252,0.12097,3.00000,1.00000,-5.97336,43.88907,0.00000,0.00000
7.4800,748,240,0,0,0.00750,0.05232,0.01249,0.23660,0.00009,0.00364,0.52093,1.49614,0.61820,0.12665,3.00000,1.00000,-5.33105,43.18251,0.00000,0.00000
7.4900,749,240,0,0,0.00778,0.05468,0.01388,0.24838,0.00000,0.00315,0.60550,1.49549,0.62388,0.13233,3.00000,1.00000,-4.65206,42.43876,0.00000,0.00000
7.5000,750,240,0,0,0.00777,0.05705,0.01386,0.26024,0.00000,0.00007,0.68895,1.49648,0.62956,0.13802,3.00000,1.00000,-3.93559,41.67375,0.00000,0.00000
7.5100,751,240,0,0,0.00777,0.05849,0.01385,0.26746,0.00000,0.00198,0.77628,1.49829,0.63524,0.14370,3.00000,1.00000,-3.20400,40.87442,0.00000,0.00000
7.5200,752,240,0,0,0.00739,0.06019,0.01193,0.27593,0.00000,0.00121,0.86113,1.49711,0.64093,0.14938,3.00000,1.00000,-2.42919,40.05887,0.00000,0.00000
7.5300,753,240,0,0,0.00796,0.06153,0.01482,0.28267,0.00000,0.00155,0.94672,1.50000,0.64661,0.15506,3.00000,1.00000,-1.63490,39.20345,0.00000,0.00000
7.5400,754,240,0,0,0.00817,0.06288,0.01584,0.28940,0.00000,0.00051,1.02868,1.50000,0.65229,0.16074,3.00000,1.00000,-0.81832,38.33309,0.00000,0.00000
7.5500,755,240,0,0,0.00759,0.06354,0.01293,0.29268,0.00238,0.00264,1.08749,1.50000,0.65797,0.16643,3.00000,1.00000,0.01955,37.43870,0.00000,0.00000
7.5600,756,240,0,0,0.00783,0.06371,0.01417,0.29355,0.00143,0.00086,1.12927,1.49803,0.66366,0.17211,3.00000,1.00000,0.89762,36.51898,0.00000,0.00000
7.5700,757,240,0,0,0.00750,0.06304,0.01250,0.29022,0.00331,0.00205,1.15717,1.50000,0.66934,0.17779,3.00000,1.00000,1.78980,35.58269,0.00000,0.00000
7.5800,758,240,0,0,0.00717,0.06251,0.01086,0.28757,0.00460,0.00345,1.17581,1.50000,0.67502,0.18347,3.00000,1.00000,2.70477,34.60934,0.00000,0.00000
7.5900,759,240,0,0,0.00710,0.06117,0.01052,0.28086,0.00294,0.00215,1.18820,1.50000,0.68070,0.18916,3.00000,1.00000,3.64547,33.62265,0.00000,0.00000
7.6000,760,240,0,0,0.00715,0.05924,0.01075,0.27122,0.00106,0.00416,1.19484,1.50000,0.68638,0.19484,3.00000,1.00000,4.59637,32.61032,0.00000,0.00000
7.6100,761,240,0,0,0.00727,0.05771,0.01136,0.26355,0.00475,0.00118,1.19432,1.50000,0.69207,0.20052,3.00000,1.00000,5.56018,31.58667,0.00000,0.00000
7.6200,762,240,0,0,0.00731,0.05552,0.01157,0.25258,0.00308,0.00214,1.18849,1.50000,0.69775,0.20620,3.00000,1.00000,6.55806,30.54716,0.00000,0.00000
7.6300,763,240,0,0,0.00717,0.05307,0.01087,0.24037,0.00327,0.00174,1.17908,1.50000,0.70343,0.21188,3.00000,1.00000,7.55481,29.49761,0.00000,0.00000
7.6400,764,240,0,0,0.00751,0.05007,0.01256,0.22535,0.00304,0.00026,1.16974,1.50000,0.70911,0.21757,3.00000,1.00000,8.57208,28.44310,0.00000,0.00000
7.6500,765,240,0,0,0.00716,0.04759,0.01081,0.21294,0.00374,0.00000,1.15826,1.50000,0.71480,0.22325,3.00000,1.00000,9.60821,27.37405,0.00000,0.00000
7.6600,766,240,0,0,0.00725,0.04458,0.01123,0.19790,0.00339,0.00000,1.14765,1.50000,0.72048,0.22893,3.00000,1.00000,10.66287,26.28154,0.00000,0.00000
7.6700,767,240,0,0,0.00755,0.04158,0.01273,0.18291,0.00047,0.00000,1.13298,1.50000,0.72616,0.23461,3.00000,1.00000,11.72000,25.18514,0.00000,0.00000
7.6800,768,240,0,0,0.00799,0.03870,0.01497,0.16848,0.00008,0.00000,1.12078,1.50000,0.73184,0.24030,3.00000,1.00000,12.79798,24.09664,0.00000,0.00000
7.6900,769,240,0,0,0.00785,0.03601,0.01425,0.15503,0.00000,0.00008,1.10682,1.50000,0.73752,0.24598,3.00000,1.00000,13.86693,22.99021,0.00000,0.00000
7.7000,770,240,0,0,0.00777,0.03309,0.01383,0.14046,0.00243,0.00134,1.09357,1.50000,0.74321,0.25166,3.00000,1.00000,14.95774,21.88152,0.00000,0.00000
7.7100,771,240,0,0,0.00775,0.03022,0.01376,0.12608,0.00293,0.00068,1.08254,1.50000,0.74889,0.25734,3.00000,1.00000,16.04965,20.75827,0.00000,0.00000
7.7200,772,240,0,0,0.00765,0.02764,0.01325,0.11322,0.00000,0.00178,1.06739,1.50000,0.75457,0.26302,3.00000,1.00000,17.13700,19.64352,0.00000,0.00000
7.7300,773,240,0,0,0.00786,0.02527,0.01432,0.10134,0.00000,0.00273,1.05381,1.50000,0.76025,0.26871,3.00000,1.00000,18.22559,18.54117,0.00000,0.00000
7.7400,774,240,0,0,0.00788,0.02269,0.01439,0.08845,0.00000,0.00245,1.03782,1.50000,0.76594,0.27439,3.00000,1.00000,19.31891,17.41999,0.00000,0.00000
7.7500,775,240,0,0,0.00844,0.02077,0.01718,0.07886,0.00000,0.00245,1.02461,1.50000,0.77162,0.28007,3.00000,1.00000,20.41083,16.30455,0.00000,0.00000
7.7600,776,240,0,0,0.00839,0.01911,0.01695,0.07055,0.00000,0.00259,1.01056,1.50000,0.77730,0.28575,3.00000,1.00000,21.51569,15.19166,0.00000,0.00000
7.7700,777,240,0,0,0.00821,0.01767,0.01604,0.06333,0.00036,0.00255,0.99469,1.50000,0.78298,0.29144,3.00000,1.00000,22.60403,14.08803,0.00000,0.00000
7.7800,778,240,0,0,0.00809,0.01608,0.01544,0.05541,0.00082,0.00000,0.98096,1.50000,0.78866,0.29712,3.00000,1.00000,23.68625,12.98568,0.00000,0.00000
7.7900,779,240,0,0,0.00874,0.01454,0.01869,0.04768,0.00036,0.00297,0.96758,1.50000,0.79435,0.30280,3.00000,1.00000,24.77139,11.88737,0.00000,0.00000
7.8000,780,240,0,0,0.00899,0.01329,0.01996,0.04147,0.00132,0.00362,0.96187,1.50000,0.80003,0.30848,3.00000,1.00000,25.84093,10.81469,0.00000,0.00000
7.8100,781,240,0,0,0.00896,0.01255,0.01980,0.03774,0.00156,0.00299,0.95382,1.50000,0.80571,0.31416,3.00000,1.00000,26.89741,9.74804,0.00000,0.00000
7.8200,782,240,0,0,0.00932,0.01180,0.02161,0.03399,0.00020,0.00474,0.94686,1.50000,0.81139,0.31985,3.00000,1.00000,27.95729,8.68153,0.00000,0.00000
7.8300,783,240,0,0,0.00957,0.01118,0.02286,0.03091,0.00054,0.00568,0.94384,1.50000,0.81708,0.32553,3.00000,1.00000,29.00064,7.64297,0.00000,0.00000
7.8400,784,240,0,0,0.01003,0.01060,0.02517,0.02799,0.00133,0.00513,0.94291,1.50000,0.82276,0.33121,3.00000,1.00000,30.04143,6.61835,0.00000,0.00000
7.8500,785,240,0,0,0.01032,0.00977,0.02658,0.02383,0.00226,0.00345,0.93894,1.50000,0.82844,0.33689,3.00000,1.00000,31.06881,5.60689,0.00000,0.00000
7.8600,786,240,0,0,0.01091,0.00922,0.02954,0.02109,0.00099,0.00261,0.93761,1.50000,0.83412,0.34258,3.00000,1.00000,32.07074,4.61294,0.00000,0.00000
7.8700,787,240,0,0,0.01124,0.00890,0.03121,0.01948,0.00000,0.00228,0.93582,1.50000,0.83980,0.34826,3.00000,1.00000,33.05310,3.64322,0.00000,0.00000
7.8800,788,240,0,0,0.01236,0.00894,0.03679,0.01968,0.00000,0.00000,0.93410,1.50000,0.84549,0.35394,3.00000,1.00000,34.02527,2.67470,0.00000,0.00000
7.8900,789,240,0,0,0.01300,0.00857,0.03998,0.01786,0.00000,0.00236,0.93691,1.50000,0.85117,0.35962,3.00000,1.00000,34.97334,1.72921,0.00000,0.00000
7.9000,790,240,0,0,0.01352,0.00809,0.04259,0.01545,0.00000,0.00000,0.93723,1.50000,0.85685,0.36530,3.00000,1.00000,35.89096,0.81170,0.00000,0.00000
7.9100,791,240,0,0,0.01401,0.00828,0.04505,0.01640,0.00000,0.00000,0.93836,1.50000,0.86253,0.37099,3.00000,1.00000,36.79828,-0.07527,0.00000,0.00000
7.9200,792,240,0,0,0.01453,0.00821,0.04764,0.01604,0.00000,0.00000,0.93951,1.50000,0.86822,0.37667,3.00000,1.00000,37.67949,-0.93780,0.00000,0.00000
7.9300,793,240,0,0,0.01470,0.00787,0.04852,0.01436,0.00000,0.00000,0.93832,1.50000,0.87390,0.38235,3.00000,1.00000,38.54303,-1.78138,0.00000,0.00000
7.9400,794,240,0,0,0.01470,0.00789,0.04850,0.01445,0.00000,0.00000,0.93838,1.50000,0.87958,0.38803,3.00000,1.00000,39.37219,-2.59014,0.00000,0.00000
7.9500,795,240,0,0,0.01468,0.00756,0.04839,0.01280,0.00000,0.00000,0.92911,1.50000,0.88526,0.39372,3.00000,1.00000,40.19837,-3.38482,0.00000,0.00000
7.9600,796,240,0,0,0.01482,0.00728,0.04911,0.01138,0.00000,0.00000,0.89751,1.50000,0.89094,0.39940,3.00000,1.00000,40.98113,-4.14035,0.00000,0.00000
7.9700,797,240,0,0,0.01483,0.00713,0.04914,0.01065,0.00000,0.00000,0.85243,1.50000,0.89663,0.40508,3.00000,1.00000,41.73846,-4.87034,0.00000,0.00000
7.9800,798,240,0,0,0.01538,0.00719,0.05192,0.01093,0.00000,0.00000,0.79315,1.50000,0.90231,0.41076,3.00000,1.00000,42.46297,-5.57311,0.00000,0.00000
