pc_time_s,seq_id,module_id,status,tx_drops,EMG R env,EMG L env,EMG R act,EMG L act,FSR RH,FSR RT,FSR LH,FSR LT,Phase R,Phase L,Gait R,Gait L,Thigh R,Thigh L,Tau R,Tau L
0.0000,0,240,0,0,0.00968,0.00984,0.02339,0.02420,0.69797,0.69907,0.69640,0.69865,0.00000,0.00000,2.00000,2.00000,-5.19456,-5.95691,0.00000,0.00000
0.0100,1,240,0,0,0.00990,0.00996,0.02448,0.02479,0.69955,0.69987,0.69835,0.69862,0.00000,0.00000,2.00000,2.00000,-5.18513,-5.94441,0.00000,0.00000
0.0200,2,240,0,0,0.01019,0.00985,0.02594,0.02423,0.70143,0.70120,0.69999,0.69908,0.00000,0.00000,2.00000,2.00000,-5.19339,-5.93222,0.00000,0.00000
0.0300,3,240,0,0,0.01037,0.00973,0.02684,0.02364,0.70047,0.70186,0.69873,0.69945,0.00000,0.00000,2.00000,2.00000,-5.20580,-5.92507,0.00000,0.00000
0.0400,4,240,0,0,0.01027,0.00990,0.02636,0.02451,0.69808,0.70079,0.69827,0.69987,0.00000,0.00000,2.00000,2.00000,-5.21346,-5.91286,0.00000,0.00000
0.0500,5,240,0,0,0.00964,0.00984,0.02319,0.02421,0.70003,0.70004,0.69509,0.69892,0.00000,0.00000,2.00000,2.00000,-5.22653,-5.88315,0.00000,0.00000
0.0600,6,240,0,0,0.00956,0.00983,0.02281,0.02417,0.69853,0.70020,0.69464,0.69830,0.00000,0.00000,2.00000,2.00000,-5.24135,-5.86027,0.00000,0.00000
0.0700,7,240,0,0,0.00950,0.00982,0.02250,0.02409,0.70004,0.70122,0.69489,0.69857,0.00000,0.00000,2.00000,2.00000,-5.24473,-5.83875,0.00000,0.00000
0.0800,8,240,0,0,0.00956,0.01009,0.02280,0.02546,0.69989,0.70172,0.69641,0.69889,0.00000,0.00000,2.00000,2.00000,-5.24131,-5.81819,0.00000,0.00000
0.0900,9,240,0,0,0.00967,0.01012,0.02334,0.02562,0.69796,0.70371,0.69584,0.69847,0.00000,0.00000,2.00000,2.00000,-5.24085,-5.80875,0.00000,0.00000
0.1000,10,240,0,0,0.00988,0.01016,0.02441,0.02581,0.69740,0.70487,0.69614,0.69942,0.00000,0.00000,2.00000,2.00000,-5.23940,-5.79472,0.00000,0.00000
0.1100,11,240,0,0,0.00997,0.01036,0.02485,0.02679,0.69815,0.70595,0.69518,0.69660,0.00000,0.00000,2.00000,2.00000,-5.23714,-5.78041,0.00000,0.00000
0.1200,12,240,0,0,0.01000,0.01034,0.02498,0.02669,0.69911,0.69959,0.69678,0.69633,0.00000,0.00000,2.00000,2.00000,-5.23630,-5.76445,0.00000,0.00000
0.1300,13,240,0,0,0.01016,0.01029,0.02580,0.02647,0.69861,0.69987,0.69836,0.69688,0.00000,0.00000,2.00000,2.00000,-5.22793,-5.75123,0.00000,0.00000
0.1400,14,240,0,0,0.01075,0.01043,0.02877,0.02713,0.69932,0.70290,0.69947,0.69632,0.00000,0.00000,2.00000,2.00000,-5.22041,-5.74138,0.00000,0.00000
0.1500,15,240,0,0,0.01074,0.01057,0.02872,0.02783,0.69592,0.70048,0.69964,0.70001,0.00000,0.00000,2.00000,2.00000,-5.21025,-5.72135,0.00000,0.00000
0.1600,16,240,0,0,0.01066,0.01049,0.02831,0.02744,0.69784,0.69973,0.69720,0.70004,0.00000,0.00000,2.00000,2.00000,-5.20627,-5.70481,0.00000,0.00000
0.1700,17,240,0,0,0.01089,0.01048,0.02944,0.02741,0.69731,0.69809,0.69695,0.70032,0.00000,0.00000,2.00000,2.00000,-5.21148,-5.71408,0.00000,0.00000
0.1800,18,240,0,0,0.01050,0.01029,0.02752,0.02644,0.69813,0.69747,0.69712,0.69944,0.00000,0.00000,2.00000,2.00000,-5.19980,-5.69341,0.00000,0.00000
0.1900,19,240,0,0,0.01046,0.01013,0.02728,0.02565,0.70097,0.69692,0.69724,0.69956,0.00000,0.00000,2.00000,2.00000,-5.20287,-5.69965,0.00000,0.00000
0.2000,20,240,0,0,0.01046,0.01037,0.02729,0.02686,0.70128,0.69965,0.69812,0.69769,0.00000,0.00000,2.00000,2.00000,-5.19191,-5.68538,0.00000,0.00000
0.2100,21,240,0,0,0.01061,0.01048,0.02806,0.02739,0.70169,0.69728,0.70098,0.69804,0.00000,0.00000,2.00000,2.00000,-5.18274,-5.66166,0.00000,0.00000
0.2200,22,240,0,0,0.01036,0.01056,0.02681,0.02778,0.69760,0.69921,0.70204,0.69704,0.00000,0.00000,2.00000,2.00000,-5.16818,-5.64010,0.00000,0.00000
0.2300,23,240,0,0,0.01031,0.01057,0.02654,0.02787,0.69855,0.69976,0.69986,0.69739,0.00000,0.00000,2.00000,2.00000,-5.15792,-5.62799,0.00000,0.00000
0.2400,24,240,0,0,0.01040,0.01054,0.02698,0.02769,0.69932,0.70152,0.70101,0.69390,0.00000,0.00000,2.00000,2.00000,-5.14683,-5.61816,0.00000,0.00000
0.2500,25,240,0,0,0.01043,0.01065,0.02713,0.02826,0.69900,0.70150,0.70179,0.69372,0.00000,0.00000,2.00000,2.00000,-5.13619,-5.59474,0.00000,0.00000
0.2600,26,240,0,0,0.01031,0.01079,0.02657,0.02894,0.69730,0.70067,0.69997,0.69784,0.00000,0.00000,2.00000,2.00000,-5.13841,-5.58913,0.00000,0.00000
0.2700,27,240,0,0,0.01035,0.01088,0.02676,0.02941,0.70028,0.70426,0.70138,0.69980,0.00000,0.00000,2.00000,2.00000,-5.14563,-5.55838,0.00000,0.00000
0.2800,28,240,0,0,0.01050,0.01073,0.02751,0.02864,0.69812,0.70229,0.70074,0.70202,0.00000,0.00000,2.00000,2.00000,-5.13444,-5.53525,0.00000,0.00000
0.2900,29,240,0,0,0.01059,0.01094,0.02793,0.02971,0.69722,0.69731,0.69822,0.70375,0.00000,0.00000,2.00000,2.00000,-5.12597,-5.51983,0.00000,0.00000
0.3000,30,240,0,0,0.01048,0.01084,0.02739,0.02922,0.70108,0.69933,0.69945,0.70383,0.00000,0.00000,2.00000,2.00000,-5.12953,-5.49536,0.00000,0.00000
0.3100,31,240,0,0,0.01062,0.01086,0.02808,0.02930,0.69856,0.69725,0.69996,0.70203,0.00000,0.00000,2.00000,2.00000,-5.12652,-5.48275,0.00000,0.00000
0.3200,32,240,0,0,0.01057,0.01080,0.02786,0.02898,0.69976,0.70075,0.69960,0.69977,0.00000,0.00000,2.00000,2.00000,-5.12351,-5.46340,0.00000,0.00000
0.3300,33,240,0,0,0.01070,0.01074,0.02852,0.02871,0.70118,0.70506,0.69965,0.70172,0.00000,0.00000,2.00000,2.00000,-5.12334,-5.45155,0.00000,0.00000
0.3400,34,240,0,0,0.01046,0.01049,0.02731,0.02744,0.69809,0.70392,0.69856,0.70135,0.00000,0.00000,2.00000,2.00000,-5.12785,-5.45528,0.00000,0.00000
0.3500,35,240,0,0,0.01070,0.01062,0.02850,0.02808,0.70223,0.70104,0.69996,0.70508,0.00000,0.00000,2.00000,2.00000,-5.14101,-5.45437,0.00000,0.00000
0.3600,36,240,0,0,0.01071,0.01118,0.02854,0.03090,0.70284,0.70084,0.69990,0.70309,0.00000,0.00000,2.00000,2.00000,-5.12738,-5.45026,0.00000,0.00000
0.3700,37,240,0,0,0.01060,0.01088,0.02802,0.02942,0.70154,0.70220,0.70020,0.70548,0.00000,0.00000,2.00000,2.00000,-5.12962,-5.43367,0.00000,0.00000
0.3800,38,240,0,0,0.01074,0.01077,0.02868,0.02884,0.70160,0.70322,0.70073,0.70373,0.00000,0.00000,2.00000,2.00000,-5.13186,-5.44023,0.00000,0.00000
0.3900,39,240,0,0,0.01059,0.01057,0.02797,0.02785,0.70214,0.70258,0.69863,0.70490,0.00000,0.00000,2.00000,2.00000,-5.13223,-5.43069,0.00000,0.00000
0.4000,40,240,0,0,0.01067,0.01042,0.02833,0.02708,0.69953,0.70054,0.69754,0.70635,0.00000,0.00000,2.00000,2.00000,-5.13059,-5.42832,0.00000,0.00000
0.4100,41,240,0,0,0.01114,0.01075,0.03068,0.02875,0.70160,0.70293,0.69458,0.70293,0.00000,0.00000,2.00000,2.00000,-5.12929,-5.42601,0.00000,0.00000
0.4200,42,240,0,0,0.01082,0.01051,0.02910,0.02753,0.70414,0.70456,0.69699,0.70133,0.00000,0.00000,2.00000,2.00000,-5.12798,-5.40964,0.00000,0.00000
0.4300,43,240,0,0,0.01074,0.01037,0.02868,0.02687,0.70159,0.70329,0.69583,0.69927,0.00000,0.00000,2.00000,2.00000,-5.11913,-5.38237,0.00000,0.00000
0.4400,44,240,0,0,0.01046,0.01003,0.02732,0.02517,0.70079,0.70189,0.69719,0.69745,0.00000,0.00000,2.00000,2.00000,-5.11441,-5.36124,0.00000,0.00000
0.4500,45,240,0,0,0.01031,0.00997,0.02657,0.02484,0.70015,0.70037,0.69857,0.69924,0.00000,0.00000,2.00000,2.00000,-5.10315,-5.34117,0.00000,0.00000
0.4600,46,240,0,0,0.01040,0.00971,0.02699,0.02356,0.69785,0.69913,0.69995,0.69913,0.00000,0.00000,2.00000,2.00000,-5.10617,-5.34191,0.00000,0.00000
0.4700,47,240,0,0,0.01033,0.01004,0.02663,0.02519,0.70081,0.69939,0.69798,0.69945,0.00000,0.00000,2.00000,2.00000,-5.11150,-5.34425,0.00000,0.00000
0.4800,48,240,0,0,0.01044,0.01075,0.02722,0.02875,0.69982,0.69913,0.69843,0.70052,0.00000,0.00000,2.00000,2.00000,-5.11879,-5.33786,0.00000,0.00000
0.4900,49,240,0,0,0.01086,0.01057,0.02928,0.02787,0.69948,0.69962,0.70160,0.69732,0.00000,0.00000,2.00000,2.00000,-5.11605,-5.34086,0.00000,0.00000
0.5000,50,240,0,0,0.01049,0.01016,0.02743,0.02581,0.69972,0.69788,0.70398,0.70017,0.00000,0.00000,2.00000,2.00000,-5.12259,-5.33806,0.00000,0.00000
0.5100,51,240,0,0,0.01087,0.01042,0.02935,0.02712,0.69925,0.70012,0.70451,0.69955,0.00000,0.00000,2.00000,2.00000,-5.12188,-5.33543,0.00000,0.00000
0.5200,52,240,0,0,0.01087,0.01026,0.02937,0.02629,0.69677,0.70163,0.70383,0.70055,0.00000,0.00000,2.00000,2.00000,-5.13199,-5.32622,0.00000,0.00000
0.5300,53,240,0,0,0.01084,0.01058,0.02921,0.02791,0.69961,0.70147,0.70113,0.70142,0.00000,0.00000,2.00000,2.00000,-5.13104,-5.30116,0.00000,0.00000
0.5400,54,240,0,0,0.01078,0.01047,0.02891,0.02735,0.69448,0.69982,0.70200,0.70328,0.00000,0.00000,2.00000,2.00000,-5.12030,-5.29251,0.00000,0.00000
0.5500,55,240,0,0,0.01086,0.01031,0.02932,0.02656,0.69686,0.70022,0.70119,0.70221,0.00000,0.00000,2.00000,2.00000,-5.11089,-5.28824,0.00000,0.00000
0.5600,56,240,0,0,0.01060,0.01030,0.02801,0.02649,0.70034,0.70201,0.70179,0.69812,0.00000,0.00000,2.00000,2.00000,-5.12257,-5.30219,0.00000,0.00000
0.5700,57,240,0,0,0.01037,0.01049,0.02686,0.02746,0.70173,0.70211,0.70026,0.69873,0.00000,0.00000,2.00000,2.00000,-5.12345,-5.30642,0.00000,0.00000
0.5800,58,240,0,0,0.01019,0.01042,0.02594,0.02708,0.70638,0.70085,0.69990,0.69940,0.00000,0.00000,2.00000,2.00000,-5.12399,-5.30294,0.00000,0.00000
0.5900,59,240,0,0,0.01019,0.01030,0.02596,0.02652,0.70536,0.70098,0.70020,0.69787,0.00000,0.00000,2.00000,2.00000,-5.12382,-5.29689,0.00000,0.00000
0.6000,60,240,0,0,0.01027,0.01029,0.02635,0.02643,0.70295,0.70144,0.70055,0.69869,0.00000,0.00000,2.00000,2.00000,-5.12814,-5.27956,0.00000,0.00000
0.6100,61,240,0,0,0.01056,0.01004,0.02780,0.02519,0.70182,0.70258,0.70121,0.69846,0.00000,0.00000,2.00000,2.00000,-5.12715,-5.27223,0.00000,0.00000
0.6200,62,240,0,0,0.01032,0.01022,0.02662,0.02612,0.69915,0.70438,0.69993,0.69668,0.00000,0.00000,2.00000,2.00000,-5.10912,-5.26269,0.00000,0.00000
0.6300,63,240,0,0,0.01002,0.00988,0.02509,0.02441,0.69883,0.70267,0.69774,0.69869,0.00000,0.00000,2.00000,2.00000,-5.11293,-5.26142,0.00000,0.00000
0.6400,64,240,0,0,0.01021,0.00993,0.02604,0.02463,0.69985,0.70273,0.70103,0.69812,0.00000,0.00000,2.00000,2.00000,-5.10467,-5.25927,0.00000,0.00000
0.6500,65,240,0,0,0.00988,0.01022,0.02440,0.02611,0.69948,0.70344,0.70484,0.69797,0.00000,0.00000,2.00000,2.00000,-5.10100,-5.26380,0.00000,0.00000
0.6600,66,240,0,0,0.01023,0.01034,0.02613,0.02669,0.69956,0.70531,0.70425,0.69776,0.00000,0.00000,2.00000,2.00000,-5.09008,-5.25330,0.00000,0.00000
0.6700,67,240,0,0,0.01008,0.01048,0.02539,0.02742,0.70226,0.70682,0.70091,0.70041,0.00000,0.00000,2.00000,2.00000,-5.08317,-5.24786,0.00000,0.00000
0.6800,68,240,0,0,0.01004,0.01045,0.02520,0.02723,0.70146,0.70547,0.69939,0.70023,0.00000,0.00000,2.00000,2.00000,-5.07247,-5.24117,0.00000,0.00000
0.6900,69,240,0,0,0.01027,0.01069,0.02634,0.02845,0.70183,0.70418,0.70039,0.70030,0.00000,0.00000,2.00000,2.00000,-5.06717,-5.23248,0.00000,0.00000
0.7000,70,240,0,0,0.01068,0.01081,0.02838,0.02907,0.70401,0.70369,0.70249,0.69949,0.00000,0.00000,2.00000,2.00000,-5.06457,-5.22166,0.00000,0.00000
0.7100,71,240,0,0,0.01038,0.01080,0.02692,0.02899,0.70190,0.70107,0.69982,0.70039,0.00000,0.00000,2.00000,2.00000,-5.07637,-5.21247,0.00000,0.00000
0.7200,72,240,0,0,0.01039,0.01089,0.02694,0.02946,0.70252,0.69910,0.69966,0.70250,0.00000,0.00000,2.00000,2.00000,-5.06581,-5.20714,0.00000,0.00000
0.7300,73,240,0,0,0.01049,0.01092,0.02744,0.02961,0.70212,0.70416,0.70008,0.70288,0.00000,0.00000,2.00000,2.00000,-5.06661,-5.19551,0.00000,0.00000
0.7400,74,240,0,0,0.01070,0.01068,0.02852,0.02841,0.70360,0.70420,0.70148,0.70322,0.00000,0.00000,2.00000,2.00000,-5.07301,-5.19458,0.00000,0.00000
0.7500,75,240,0,0,0.01099,0.01031,0.02994,0.02655,0.70168,0.70047,0.70051,0.70333,0.00000,0.00000,2.00000,2.00000,-5.08844,-5.19094,0.00000,0.00000
0.7600,76,240,0,0,0.01114,0.01043,0.03068,0.02714,0.69850,0.69829,0.69780,0.70015,0.00000,0.00000,2.00000,2.00000,-5.09672,-5.18701,0.00000,0.00000
0.7700,77,240,0,0,0.01102,0.01054,0.03010,0.02770,0.69862,0.69931,0.69942,0.69867,0.00000,0.00000,2.00000,2.00000,-5.11023,-5.18000,0.00000,0.00000
0.7800,78,240,0,0,0.01081,0.01074,0.02907,0.02870,0.69784,0.70045,0.70143,0.69870,0.00000,0.00000,2.00000,2.00000,-5.12003,-5.19622,0.00000,0.00000
0.7900,79,240,0,0,0.01060,0.01044,0.02802,0.02721,0.69935,0.69802,0.70090,0.69786,0.00000,0.00000,2.00000,2.00000,-5.12163,-5.19422,0.00000,0.00000
0.8000,80,240,0,0,0.01065,0.01023,0.02827,0.02616,0.69948,0.69962,0.70132,0.69670,0.00000,0.00000,2.00000,2.00000,-5.11527,-5.19855,0.00000,0.00000
0.8100,81,240,0,0,0.01098,0.01038,0.02988,0.02689,0.70072,0.69945,0.70018,0.69453,0.00000,0.00000,2.00000,2.00000,-5.12993,-5.18824,0.00000,0.00000
0.8200,82,240,0,0,0.01101,0.01037,0.03005,0.02684,0.69964,0.69785,0.69874,0.69381,0.00000,0.00000,2.00000,2.00000,-5.12467,-5.17276,0.00000,0.00000
0.8300,83,240,0,0,0.01061,0.00996,0.02804,0.02482,0.69925,0.69889,0.70077,0.69509,0.00000,0.00000,2.00000,2.00000,-5.13161,-5.16503,0.00000,0.00000
0.8400,84,240,0,0,0.01051,0.01017,0.02757,0.02583,0.70320,0.69563,0.70120,0.69632,0.00000,0.00000,2.00000,2.00000,-5.13148,-5.15398,0.00000,0.00000
0.8500,85,240,0,0,0.01046,0.00982,0.02728,0.02412,0.69974,0.69670,0.70167,0.69602,0.00000,0.00000,2.00000,2.00000,-5.13406,-5.14808,0.00000,0.00000
0.8600,86,240,0,0,0.01025,0.00977,0.02625,0.02387,0.69689,0.69605,0.70368,0.69724,0.00000,0.00000,2.00000,2.00000,-5.12363,-5.14166,0.00000,0.00000
0.8700,87,240,0,0,0.01021,0.01024,0.02604,0.02621,0.69659,0.69495,0.70094,0.69728,0.00000,0.00000,2.00000,2.00000,-5.12977,-5.13252,0.00000,0.00000
0.8800,88,240,0,0,0.01021,0.01068,0.02605,0.02842,0.69805,0.69761,0.69978,0.69982,0.00000,0.00000,2.00000,2.00000,-5.11839,-5.12609,0.00000,0.00000
0.8900,89,240,0,0,0.00972,0.01034,0.02362,0.02670,0.70110,0.70254,0.70010,0.69960,0.00000,0.00000,2.00000,2.00000,-5.10805,-5.11087,0.00000,0.00000
0.9000,90,240,0,0,0.01002,0.01028,0.02509,0.02642,0.69920,0.70015,0.69914,0.70086,0.00000,0.00000,2.00000,2.00000,-5.10029,-5.09584,0.00000,0.00000
0.9100,91,240,0,0,0.01001,0.01033,0.02503,0.02663,0.69880,0.69918,0.70066,0.70096,0.00000,0.00000,2.00000,2.00000,-5.10190,-5.09557,0.00000,0.00000
0.9200,92,240,0,0,0.00957,0.01074,0.02284,0.02868,0.69912,0.70036,0.70018,0.69839,0.00000,0.00000,2.00000,2.00000,-5.08657,-5.10148,0.00000,0.00000
0.9300,93,240,0,0,0.00974,0.01054,0.02370,0.02768,0.69903,0.70123,0.69850,0.69868,0.00000,0.00000,2.00000,2.00000,-5.06933,-5.10037,0.00000,0.00000
0.9400,94,240,0,0,0.00985,0.01039,0.02425,0.02697,0.69691,0.70122,0.69902,0.69701,0.00000,0.00000,2.00000,2.00000,-5.07361,-5.08141,0.00000,0.00000
0.9500,95,240,0,0,0.01006,0.01074,0.02529,0.02868,0.69637,0.70385,0.69957,0.69765,0.00000,0.00000,2.00000,2.00000,-5.05466,-5.06737,0.00000,0.00000
0.9600,96,240,0,0,0.01023,0.01056,0.02613,0.02781,0.69978,0.70162,0.70122,0.69707,0.00000,0.00000,2.00000,2.00000,-5.03676,-5.06042,0.00000,0.00000
0.9700,97,240,0,0,0.00998,0.01068,0.02488,0.02838,0.70025,0.70079,0.70153,0.69850,0.00000,0.00000,2.00000,2.00000,-5.02634,-5.04418,0.00000,0.00000
0.9800,98,240,0,0,0.01009,0.01028,0.02547,0.02638,0.70084,0.70059,0.70187,0.69671,0.00000,0.00000,2.00000,2.00000,-5.01581,-5.04225,0.00000,0.00000
0.9900,99,240,0,0,0.00985,0.01027,0.02424,0.02636,0.70126,0.70189,0.70188,0.69763,0.00000,0.00000,2.00000,2.00000,-5.00744,-5.04313,0.00000,0.00000
1.0000,100,240,0,0,0.01018,0.00994,0.02592,0.02472,0.70263,0.70269,0.70106,0.69922,0.00000,0.00000,2.00000,2.00000,-4.99477,-5.04086,0.00000,0.00000
1.0100,101,240,0,0,0.01027,0.00984,0.02636,0.02419,0.70457,0.70231,0.69959,0.70092,0.00000,0.00000,2.00000,2.00000,-4.98728,-5.04297,0.00000,0.00000
1.0200,102,240,0,0,0.01030,0.01018,0.02650,0.02588,0.70307,0.70297,0.70018,0.69942,0.00000,0.00000,2.00000,2.00000,-4.97683,-5.04661,0.00000,0.00000
1.0300,103,240,0,0,0.01014,0.01023,0.02570,0.02613,0.70541,0.70140,0.69958,0.69961,0.00000,0.00000,2.00000,2.00000,-4.98942,-5.03469,0.00000,0.00000
1.0400,104,240,0,0,0.00975,0.01020,0.02376,0.02602,0.70487,0.70142,0.70247,0.70002,0.00000,0.00000,2.00000,2.00000,-4.99098,-5.03872,0.00000,0.00000
1.0500,105,240,0,0,0.01003,0.01009,0.02514,0.02547,0.70260,0.70328,0.70400,0.70255,0.00000,0.00000,2.00000,2.00000,-4.99198,-5.03594,0.00000,0.00000
1.0600,106,240,0,0,0.01036,0.01013,0.02679,0.02565,0.70395,0.70388,0.70394,0.69942,0.00000,0.00000,2.00000,2.00000,-4.99616,-5.02737,0.00000,0.00000
1.0700,107,240,0,0,0.01047,0.01027,0.02733,0.02635,0.70405,0.70295,0.70349,0.69808,0.00000,0.00000,2.00000,2.00000,-4.98294,-5.01903,0.00000,0.00000
1.0800,108,240,0,0,0.01013,0.01052,0.02563,0.02760,0.70087,0.69976,0.70239,0.70321,0.00000,0.00000,2.00000,2.00000,-4.97380,-5.03166,0.00000,0.00000
1.0900,109,240,0,0,0.01002,0.00991,0.02508,0.02456,0.69892,0.70080,0.69966,0.70189,0.00000,0.00000,2.00000,2.00000,-4.96556,-5.02697,0.00000,0.00000
1.1000,110,240,0,0,0.01053,0.00986,0.02767,0.02432,0.69866,0.70235,0.69940,0.69826,0.00000,0.00000,2.00000,2.00000,-4.96265,-5.03395,0.00000,0.00000
1.1100,111,240,0,0,0.01046,0.01005,0.02730,0.02523,0.69958,0.70099,0.69973,0.69778,0.00000,0.00000,2.00000,2.00000,-4.96976,-5.04997,0.00000,0.00000
1.1200,112,240,0,0,0.01018,0.01012,0.02589,0.02560,0.70048,0.70135,0.70018,0.69384,0.00000,0.00000,2.00000,2.00000,-4.98239,-5.05266,0.00000,0.00000
1.1300,113,240,0,0,0.01056,0.01029,0.02780,0.02643,0.69740,0.70145,0.70090,0.69592,0.00000,0.00000,2.00000,2.00000,-4.98116,-5.05871,0.00000,0.00000
1.1400,114,240,0,0,0.01073,0.01038,0.02865,0.02688,0.69957,0.70353,0.70217,0.69837,0.00000,0.00000,2.00000,2.00000,-4.97927,-5.06857,0.00000,0.00000
1.1500,115,240,0,0,0.01043,0.01032,0.02717,0.02658,0.70013,0.70361,0.70044,0.69732,0.00000,0.00000,2.00000,2.00000,-4.98800,-5.06484,0.00000,0.00000
1.1600,116,240,0,0,0.01031,0.01022,0.02657,0.02612,0.69851,0.70281,0.69920,0.69728,0.00000,0.00000,2.00000,2.00000,-4.99584,-5.06750,0.00000,0.00000
1.1700,117,240,0,0,0.01054,0.01022,0.02770,0.02609,0.69662,0.70184,0.70180,0.69954,0.00000,0.00000,2.00000,2.00000,-4.99607,-5.07478,0.00000,0.00000
1.1800,118,240,0,0,0.01051,0.01052,0.02754,0.02760,0.69777,0.70347,0.70257,0.69679,0.00000,0.00000,2.00000,2.00000,-4.99018,-5.07221,0.00000,0.00000
1.1900,119,240,0,0,0.01043,0.01033,0.02713,0.02663,0.69768,0.70307,0.70123,0.69550,0.00000,0.00000,2.00000,2.00000,-4.97403,-5.07282,0.00000,0.00000
1.2000,120,240,0,0,0.01014,0.01033,0.02568,0.02666,0.69940,0.70165,0.70071,0.69636,0.00000,0.00000,2.00000,2.00000,-4.96068,-5.07124,0.00000,0.00000
1.2100,121,240,0,0,0.01016,0.01039,0.02580,0.02696,0.70176,0.70152,0.70035,0.69612,0.00000,0.00000,2.00000,2.00000,-4.95885,-5.06682,0.00000,0.00000
1.2200,122,240,0,0,0.00988,0.01074,0.02439,0.02868,0.70053,0.70157,0.70031,0.69670,0.00000,0.00000,2.00000,2.00000,-4.96402,-5.05726,0.00000,0.00000
1.2300,123,240,0,0,0.00982,0.01058,0.02412,0.02789,0.69923,0.70137,0.70100,0.69553,0.00000,0.00000,2.00000,2.00000,-4.96784,-5.05387,0.00000,0.00000
1.2400,124,240,0,0,0.01031,0.01074,0.02654,0.02870,0.70026,0.70023,0.70489,0.69710,0.00000,0.00000,2.00000,2.00000,-4.98681,-5.05462,0.00000,0.00000
1.2500,125,240,0,0,0.00979,0.01092,0.02394,0.02958,0.70178,0.70141,0.70386,0.69765,0.00000,0.00000,2.00000,2.00000,-5.00179,-5.05805,0.00000,0.00000
1.2600,126,240,0,0,0.01003,0.01076,0.02514,0.02880,0.69948,0.70356,0.70389,0.69920,0.00000,0.00000,2.00000,2.00000,-5.01843,-5.05433,0.00000,0.00000
1.2700,127,240,0,0,0.00988,0.01062,0.02440,0.02808,0.70261,0.70216,0.70006,0.69975,0.00000,0.00000,2.00000,2.00000,-5.02728,-5.05750,0.00000,0.00000
1.2800,128,240,0,0,0.00993,0.01048,0.02467,0.02742,0.70140,0.69974,0.69925,0.70015,0.00000,0.00000,2.00000,2.00000,-5.03335,-5.06587,0.00000,0.00000
1.2900,129,240,0,0,0.01005,0.01041,0.02523,0.02703,0.69863,0.69582,0.70147,0.69774,0.00000,0.00000,2.00000,2.00000,-5.03831,-5.07122,0.00000,0.00000
1.3000,130,240,0,0,0.01019,0.01059,0.02597,0.02796,0.69998,0.69835,0.70173,0.69917,0.00000,0.00000,2.00000,2.00000,-5.02649,-5.05174,0.00000,0.00000
1.3100,131,240,0,0,0.01043,0.01059,0.02714,0.02795,0.70071,0.69675,0.69405,0.69885,0.00000,0.00000,2.00000,2.00000,-5.01854,-5.04605,0.00000,0.00000
1.3200,132,240,0,0,0.01029,0.01059,0.02644,0.02795,0.69854,0.69710,0.69678,0.69889,0.00000,0.00000,2.00000,2.00000,-5.01791,-5.03069,0.00000,0.00000
1.3300,133,240,0,0,0.01021,0.01029,0.02606,0.02645,0.70237,0.69741,0.70081,0.70092,0.00000,0.00000,2.00000,2.00000,-5.01526,-5.02467,0.00000,0.00000
1.3400,134,240,0,0,0.01027,0.01011,0.02635,0.02554,0.70125,0.69887,0.69731,0.69948,0.00000,0.00000,2.00000,2.00000,-5.01814,-5.01740,0.00000,0.00000
1.3500,135,240,0,0,0.01063,0.01066,0.02814,0.02829,0.69991,0.69776,0.70054,0.70184,0.00000,0.00000,2.00000,2.00000,-5.03532,-5.02459,0.00000,0.00000
1.3600,136,240,0,0,0.01043,0.01055,0.02716,0.02774,0.69953,0.69609,0.69584,0.70371,0.00000,0.00000,2.00000,2.00000,-5.04448,-5.02180,0.00000,0.00000
1.3700,137,240,0,0,0.01032,0.01034,0.02662,0.02669,0.69788,0.69813,0.69852,0.70393,0.00000,0.00000,2.00000,2.00000,-5.04625,-5.01970,0.00000,0.00000
1.3800,138,240,0,0,0.01049,0.01067,0.02745,0.02834,0.69750,0.69903,0.69891,0.70125,0.00000,0.00000,2.00000,2.00000,-5.04130,-5.01877,0.00000,0.00000
1.3900,139,240,0,0,0.01074,0.01066,0.02872,0.02828,0.69668,0.69906,0.69535,0.69731,0.00000,0.00000,2.00000,2.00000,-5.04398,-5.01762,0.00000,0.00000
1.4000,140,240,0,0,0.01085,0.01071,0.02927,0.02857,0.69618,0.69926,0.69736,0.69982,0.00000,0.00000,2.00000,2.00000,-5.05553,-5.03325,0.00000,0.00000
1.4100,141,240,0,0,0.01074,0.01060,0.02870,0.02799,0.69707,0.69812,0.69997,0.70005,0.00000,0.00000,2.00000,2.00000,-5.04766,-5.03694,0.00000,0.00000
1.4200,142,240,0,0,0.01066,0.01047,0.02831,0.02737,0.69922,0.69745,0.70058,0.69881,0.00000,0.00000,2.00000,2.00000,-5.05428,-5.05506,0.00000,0.00000
1.4300,143,240,0,0,0.01065,0.01042,0.02824,0.02708,0.69996,0.69879,0.70138,0.70107,0.00000,0.00000,2.00000,2.00000,-5.04108,-5.06309,0.00000,0.00000
1.4400,144,240,0,0,0.01062,0.01011,0.02809,0.02554,0.70302,0.70015,0.70033,0.69936,0.00000,0.00000,2.00000,2.00000,-5.03011,-5.06900,0.00000,0.00000
1.4500,145,240,0,0,0.01056,0.01017,0.02780,0.02585,0.70094,0.69882,0.69718,0.69884,0.00000,0.00000,2.00000,2.00000,-5.03455,-5.07448,0.00000,0.00000
1.4600,146,240,0,0,0.01071,0.01030,0.02853,0.02649,0.70201,0.70147,0.69909,0.70002,0.00000,0.00000,2.00000,2.00000,-5.04723,-5.07915,0.00000,0.00000
1.4700,147,240,0,0,0.01103,0.01073,0.03014,0.02865,0.70394,0.70101,0.70221,0.69818,0.00000,0.00000,2.00000,2.00000,-5.04487,-5.10324,0.00000,0.00000
1.4800,148,240,0,0,0.01084,0.01066,0.02919,0.02830,0.70318,0.70070,0.70346,0.69850,0.00000,0.00000,2.00000,2.00000,-5.05342,-5.11308,0.00000,0.00000
1.4900,149,240,0,0,0.01066,0.01008,0.02829,0.02538,0.70258,0.70025,0.69925,0.70070,0.00000,0.00000,2.00000,2.00000,-5.04944,-5.12342,0.00000,0.00000
1.5000,150,240,0,0,0.01064,0.01014,0.02818,0.02572,0.70362,0.70050,0.69697,0.70086,0.00000,0.00000,2.00000,2.00000,-5.04642,-5.12615,0.00000,0.00000
1.5100,151,240,0,0,0.01065,0.01081,0.02823,0.02907,0.70364,0.70130,0.69641,0.70267,0.00000,0.00000,2.00000,2.00000,-5.04732,-5.11940,0.00000,0.00000
1.5200,152,240,0,0,0.01075,0.01089,0.02874,0.02945,0.70083,0.70366,0.69477,0.70380,0.00000,0.00000,2.00000,2.00000,-5.05032,-5.10227,0.00000,0.00000
1.5300,153,240,0,0,0.01073,0.01058,0.02865,0.02789,0.70250,0.70253,0.69628,0.70277,0.00000,0.00000,2.00000,2.00000,-5.04009,-5.10164,0.00000,0.00000
1.5400,154,240,0,0,0.01083,0.01066,0.02914,0.02830,0.70309,0.70191,0.69794,0.69818,0.00000,0.00000,2.00000,2.00000,-5.03391,-5.09205,0.00000,0.00000
1.5500,155,240,0,0,0.01042,0.01043,0.02711,0.02713,0.70221,0.69984,0.69616,0.69686,0.00000,0.00000,2.00000,2.00000,-5.03412,-5.09384,0.00000,0.00000
1.5600,156,240,0,0,0.01044,0.01012,0.02719,0.02561,0.70069,0.69873,0.69849,0.69897,0.00000,0.00000,2.00000,2.00000,-5.02615,-5.07346,0.00000,0.00000
1.5700,157,240,0,0,0.01063,0.01012,0.02814,0.02561,0.70183,0.70274,0.69989,0.69671,0.00000,0.00000,2.00000,2.00000,-5.03208,-5.05372,0.00000,0.00000
1.5800,158,240,0,0,0.01080,0.01022,0.02900,0.02609,0.70288,0.69980,0.69902,0.69707,0.00000,0.00000,2.00000,2.00000,-5.01909,-5.05378,0.00000,0.00000
1.5900,159,240,0,0,0.01069,0.00986,0.02847,0.02429,0.70255,0.69833,0.69900,0.69843,0.00000,0.00000,2.00000,2.00000,-5.00124,-5.04857,0.00000,0.00000
1.6000,160,240,0,0,0.01076,0.00975,0.02881,0.02377,0.69947,0.70075,0.69607,0.70127,0.00000,0.00000,2.00000,2.00000,-5.00090,-5.04833,0.00000,0.00000
1.6100,161,240,0,0,0.01090,0.00993,0.02949,0.02467,0.69766,0.70090,0.69660,0.69998,0.00000,0.00000,2.00000,2.00000,-5.00592,-5.05688,0.00000,0.00000
1.6200,162,240,0,0,0.01116,0.00997,0.03082,0.02486,0.69797,0.70197,0.69754,0.69893,0.00000,0.00000,2.00000,2.00000,-4.99893,-5.05681,0.00000,0.00000
1.6300,163,240,0,0,0.01082,0.01018,0.02911,0.02588,0.70008,0.70185,0.69849,0.69914,0.00000,0.00000,2.00000,2.00000,-4.98653,-5.06561,0.00000,0.00000
1.6400,164,240,0,0,0.01086,0.00997,0.02930,0.02485,0.69930,0.69984,0.69953,0.69995,0.00000,0.00000,2.00000,2.00000,-4.98467,-5.07460,0.00000,0.00000
1.6500,165,240,0,0,0.01059,0.01024,0.02797,0.02622,0.69653,0.69816,0.70006,0.69971,0.00000,0.00000,2.00000,2.00000,-4.97262,-5.06457,0.00000,0.00000
1.6600,166,240,0,0,0.01057,0.01003,0.02785,0.02514,0.69929,0.69791,0.69961,0.70151,0.00000,0.00000,2.00000,2.00000,-4.96726,-5.06364,0.00000,0.00000
1.6700,167,240,0,0,0.01063,0.01049,0.02816,0.02745,0.69916,0.70079,0.70019,0.69979,0.00000,0.00000,2.00000,2.00000,-4.97829,-5.06454,0.00000,0.00000
1.6800,168,240,0,0,0.01042,0.01009,0.02711,0.02545,0.70045,0.70294,0.70178,0.70004,0.00000,0.00000,2.00000,2.00000,-4.98822,-5.06626,0.00000,0.00000
1.6900,169,240,0,0,0.01049,0.00994,0.02747,0.02468,0.69810,0.70063,0.70114,0.70076,0.00000,0.00000,2.00000,2.00000,-4.98956,-5.06156,0.00000,0.00000
1.7000,170,240,0,0,0.01056,0.01015,0.02778,0.02577,0.69731,0.70050,0.70135,0.69990,0.00000,0.00000,2.00000,2.00000,-4.98793,-5.05089,0.00000,0.00000
1.7100,171,240,0,0,0.01031,0.01059,0.02655,0.02793,0.69788,0.70141,0.70067,0.70130,0.00000,0.00000,2.00000,2.00000,-4.97967,-5.04666,0.00000,0.00000
1.7200,172,240,0,0,0.01034,0.01060,0.02669,0.02802,0.70058,0.70021,0.69943,0.70119,0.00000,0.00000,2.00000,2.00000,-4.98565,-5.04002,0.00000,0.00000
1.7300,173,240,0,0,0.01028,0.01067,0.02638,0.02836,0.70163,0.69969,0.70044,0.70216,0.00000,0.00000,2.00000,2.00000,-4.98567,-5.03896,0.00000,0.00000
1.7400,174,240,0,0,0.01015,0.01060,0.02575,0.02800,0.70252,0.70080,0.69941,0.70189,0.00000,0.00000,2.00000,2.00000,-4.97894,-5.04216,0.00000,0.00000
1.7500,175,240,0,0,0.00998,0.01032,0.02488,0.02661,0.70066,0.69860,0.70021,0.70199,0.00000,0.00000,2.00000,2.00000,-4.98387,-5.04854,0.00000,0.00000
1.7600,176,240,0,0,0.01033,0.01024,0.02665,0.02618,0.70207,0.69943,0.70020,0.70041,0.00000,0.00000,2.00000,2.00000,-4.98717,-5.05650,0.00000,0.00000
1.7700,177,240,0,0,0.01068,0.01001,0.02840,0.02507,0.70299,0.69835,0.69964,0.69926,0.00000,0.00000,2.00000,2.00000,-4.98881,-5.04280,0.00000,0.00000
1.7800,178,240,0,0,0.01075,0.00984,0.02876,0.02420,0.70297,0.70080,0.69920,0.70147,0.00000,0.00000,2.00000,2.00000,-4.98680,-5.02370,0.00000,0.00000
1.7900,179,240,0,0,0.01019,0.01008,0.02596,0.02541,0.70235,0.70188,0.69859,0.70211,0.00000,0.00000,2.00000,2.00000,-5.00492,-5.01555,0.00000,0.00000
1.8000,180,240,0,0,0.01056,0.00992,0.02781,0.02461,0.70070,0.70183,0.69627,0.69985,0.00000,0.00000,2.00000,2.00000,-5.01184,-5.00657,0.00000,0.00000
1.8100,181,240,0,0,0.01024,0.01012,0.02618,0.02562,0.69705,0.70130,0.69792,0.70019,0.00000,0.00000,2.00000,2.00000,-5.02721,-5.00491,0.00000,0.00000
1.8200,182,240,0,0,0.01029,0.00991,0.02645,0.02457,0.69588,0.70040,0.69887,0.69624,0.00000,0.00000,2.00000,2.00000,-5.04370,-5.01020,0.00000,0.00000
1.8300,183,240,0,0,0.01035,0.01011,0.02673,0.02556,0.69555,0.69950,0.70057,0.69633,0.00000,0.00000,2.00000,2.00000,-5.04379,-5.00614,0.00000,0.00000
1.8400,184,240,0,0,0.01053,0.01008,0.02763,0.02542,0.69550,0.70165,0.69954,0.69891,0.00000,0.00000,2.00000,2.00000,-5.04900,-4.99385,0.00000,0.00000
1.8500,185,240,0,0,0.01007,0.01048,0.02536,0.02739,0.69627,0.70214,0.70278,0.69900,0.00000,0.00000,2.00000,2.00000,-5.04826,-4.99344,0.00000,0.00000
1.8600,186,240,0,0,0.01024,0.01053,0.02618,0.02764,0.69740,0.70223,0.70140,0.69947,0.00000,0.00000,2.00000,2.00000,-5.06261,-4.99721,0.00000,0.00000
1.8700,187,240,0,0,0.01041,0.01076,0.02704,0.02882,0.69891,0.69969,0.69958,0.69466,0.00000,0.00000,2.00000,2.00000,-5.06655,-4.99075,0.00000,0.00000
1.8800,188,240,0,0,0.01030,0.01050,0.02649,0.02749,0.69908,0.69952,0.69806,0.69548,0.00000,0.00000,2.00000,2.00000,-5.06771,-4.98669,0.00000,0.00000
1.8900,189,240,0,0,0.01022,0.01048,0.02610,0.02742,0.69767,0.70150,0.69574,0.69727,0.00000,0.00000,2.00000,2.00000,-5.07700,-4.98733,0.00000,0.00000
1.9000,190,240,0,0,0.01052,0.01025,0.02760,0.02623,0.69768,0.70281,0.69943,0.69878,0.00000,0.00000,2.00000,2.00000,-5.07678,-4.99130,0.00000,0.00000
1.9100,191,240,0,0,0.01049,0.01020,0.02743,0.02599,0.69643,0.69937,0.70184,0.70070,0.00000,0.00000,2.00000,2.00000,-5.07266,-4.99598,0.00000,0.00000
1.9200,192,240,0,0,0.01005,0.01020,0.02524,0.02598,0.69815,0.69820,0.70232,0.70016,0.00000,0.00000,2.00000,2.00000,-5.06144,-5.00164,0.00000,0.00000
1.9300,193,240,0,0,0.01002,0.01009,0.02511,0.02546,0.70130,0.69784,0.70021,0.69984,0.00000,0.00000,2.00000,2.00000,-5.04136,-5.00020,0.00000,0.00000
1.9400,194,240,0,0,0.01025,0.00991,0.02623,0.02455,0.70029,0.69757,0.70313,0.69770,0.00000,0.00000,2.00000,2.00000,-5.02852,-5.00179,0.00000,0.00000
1.9500,195,240,0,0,0.01069,0.00973,0.02846,0.02367,0.69896,0.69815,0.70170,0.69799,0.00000,0.00000,2.00000,2.00000,-5.02836,-4.99979,0.00000,0.00000
1.9600,196,240,0,0,0.01068,0.00940,0.02838,0.02202,0.70252,0.70201,0.70079,0.69647,0.00000,0.00000,2.00000,2.00000,-5.01600,-4.99410,0.00000,0.00000
1.9700,197,240,0,0,0.01099,0.00945,0.02993,0.02223,0.70126,0.70193,0.70293,0.69440,0.00000,0.00000,2.00000,2.00000,-5.00503,-4.99838,0.00000,0.00000
1.9800,198,240,0,0,0.01061,0.00984,0.02807,0.02422,0.69884,0.70196,0.70321,0.69415,0.00000,0.00000,2.00000,2.00000,-5.00180,-5.00640,0.00000,0.00000
1.9900,199,240,0,0,0.01031,0.00965,0.02655,0.02323,0.70053,0.69919,0.70595,0.69823,0.00000,0.00000,2.00000,2.00000,-4.99837,-5.00742,0.00000,0.00000
2.0000,200,240,0,0,0.01015,0.00955,0.02576,0.02277,0.69795,0.69848,0.70473,0.69827,0.00000,0.00000,2.00000,2.00000,-4.99469,-5.00612,0.00000,0.00000
2.0100,201,240,0,0,0.01022,0.01018,0.02608,0.02589,0.69888,0.70085,0.70278,0.69911,0.00000,0.00000,2.00000,2.00000,-4.98800,-5.01596,0.00000,0.00000
2.0200,202,240,0,0,0.01050,0.01010,0.02749,0.02549,0.69733,0.69792,0.70102,0.69851,0.00000,0.00000,2.00000,2.00000,-4.98577,-5.03668,0.00000,0.00000
2.0300,203,240,0,0,0.01043,0.01025,0.02715,0.02626,0.69656,0.69571,0.69770,0.69597,0.00000,0.00000,2.00000,2.00000,-4.97989,-5.03147,0.00000,0.00000
2.0400,204,240,0,0,0.01073,0.01043,0.02866,0.02716,0.69615,0.69688,0.69787,0.69861,0.00000,0.00000,2.00000,2.00000,-4.98595,-5.02629,0.00000,0.00000
2.0500,205,240,0,0,0.01058,0.01057,0.02790,0.02784,0.69547,0.69701,0.70034,0.69543,0.00000,0.00000,2.00000,2.00000,-4.98897,-5.04040,0.00000,0.00000
2.0600,206,240,0,0,0.01056,0.01019,0.02780,0.02595,0.69611,0.69957,0.70123,0.69577,0.00000,0.00000,2.00000,2.00000,-4.99501,-5.04082,0.00000,0.00000
2.0700,207,240,0,0,0.01061,0.01020,0.02803,0.02598,0.69794,0.69942,0.70093,0.69684,0.00000,0.00000,2.00000,2.00000,-5.00604,-5.03435,0.00000,0.00000
2.0800,208,240,0,0,0.01082,0.00990,0.02912,0.02449,0.69870,0.69941,0.69904,0.69808,0.00000,0.00000,2.00000,2.00000,-5.01236,-5.03548,0.00000,0.00000
2.0900,209,240,0,0,0.01026,0.01057,0.02631,0.02786,0.70041,0.69443,0.69967,0.69741,0.00000,0.00000,2.00000,2.00000,-5.03104,-5.04230,0.00000,0.00000
2.1000,210,240,0,0,0.01042,0.01017,0.02712,0.02587,0.70012,0.69530,0.70143,0.69510,0.00000,0.00000,2.00000,2.00000,-5.04009,-5.03801,0.00000,0.00000
2.1100,211,240,0,0,0.01059,0.01001,0.02793,0.02504,0.69950,0.69640,0.70174,0.69513,0.00000,0.00000,2.00000,2.00000,-5.04310,-5.04183,0.00000,0.00000
2.1200,212,240,0,0,0.01042,0.00989,0.02709,0.02443,0.69746,0.70060,0.70154,0.69523,0.00000,0.00000,2.00000,2.00000,-5.04815,-5.04029,0.00000,0.00000
2.1300,213,240,0,0,0.01088,0.00970,0.02939,0.02350,0.69796,0.69925,0.69981,0.69527,0.00000,0.00000,2.00000,2.00000,-5.06096,-5.02537,0.00000,0.00000
2.1400,214,240,0,0,0.01059,0.01019,0.02794,0.02594,0.69937,0.70183,0.70129,0.69816,0.00000,0.00000,2.00000,2.00000,-5.07385,-5.00809,0.00000,0.00000
2.1500,215,240,0,0,0.01045,0.01078,0.02727,0.02888,0.70319,0.70207,0.69579,0.69667,0.00000,0.00000,2.00000,2.00000,-5.06915,-4.99309,0.00000,0.00000
2.1600,216,240,0,0,0.01031,0.01057,0.02657,0.02785,0.70386,0.69971,0.69757,0.69807,0.00000,0.00000,2.00000,2.00000,-5.07059,-4.97199,0.00000,0.00000
2.1700,217,240,0,0,0.01026,0.01023,0.02630,0.02617,0.70240,0.69830,0.70246,0.69886,0.00000,0.00000,2.00000,2.00000,-5.05814,-4.95894,0.00000,0.00000
2.1800,218,240,0,0,0.01075,0.00979,0.02877,0.02395,0.69909,0.69651,0.69931,0.70075,0.00000,0.00000,2.00000,2.00000,-5.07215,-4.94447,0.00000,0.00000
2.1900,219,240,0,0,0.01061,0.00990,0.02803,0.02451,0.69696,0.69970,0.69910,0.70033,0.00000,0.00000,2.00000,2.00000,-5.07510,-4.94001,0.00000,0.00000
2.2000,220,240,0,0,0.01068,0.00997,0.02842,0.02485,0.70135,0.70198,0.69933,0.70154,0.00000,0.00000,2.00000,2.00000,-5.07099,-4.93522,0.00000,0.00000
2.2100,221,240,0,0,0.01101,0.00994,0.03005,0.02472,0.70272,0.69994,0.69876,0.70083,0.00000,0.00000,2.00000,2.00000,-5.08013,-4.93528,0.00000,0.00000
2.2200,222,240,0,0,0.01080,0.01012,0.02902,0.02559,0.69952,0.69863,0.70080,0.70132,0.00000,0.00000,2.00000,2.00000,-5.08034,-4.93050,0.00000,0.00000
2.2300,223,240,0,0,0.01089,0.01028,0.02945,0.02641,0.69916,0.69774,0.70136,0.69849,0.00000,0.00000,2.00000,2.00000,-5.08344,-4.93004,0.00000,0.00000
2.2400,224,240,0,0,0.01092,0.01038,0.02959,0.02692,0.69819,0.70160,0.70124,0.69457,0.00000,0.00000,2.00000,2.00000,-5.08007,-4.92759,0.00000,0.00000
2.2500,225,240,0,0,0.01076,0.01032,0.02879,0.02660,0.69636,0.70129,0.70221,0.69668,0.00000,0.00000,2.00000,2.00000,-5.07327,-4.92997,0.00000,0.00000
2.2600,226,240,0,0,0.01054,0.01010,0.02771,0.02550,0.69922,0.70080,0.70163,0.69829,0.00000,0.00000,2.00000,2.00000,-5.05296,-4.93128,0.00000,0.00000
2.2700,227,240,0,0,0.01053,0.01033,0.02765,0.02664,0.69773,0.69855,0.70641,0.69954,0.00000,0.00000,2.00000,2.00000,-5.05464,-4.92445,0.00000,0.00000
2.2800,228,240,0,0,0.01087,0.01035,0.02933,0.02675,0.69754,0.69845,0.70490,0.69881,0.00000,0.00000,2.00000,2.00000,-5.04851,-4.91208,0.00000,0.00000
2.2900,229,240,0,0,0.01073,0.01056,0.02864,0.02779,0.69661,0.69799,0.70388,0.70158,0.00000,0.00000,2.00000,2.00000,-5.03214,-4.89927,0.00000,0.00000
2.3000,230,240,0,0,0.01086,0.01069,0.02928,0.02844,0.69804,0.69885,0.70001,0.70039,0.00000,0.00000,2.00000,2.00000,-5.03477,-4.88720,0.00000,0.00000
2.3100,231,240,0,0,0.01039,0.01030,0.02695,0.02649,0.70057,0.69851,0.69911,0.70098,0.00000,0.00000,2.00000,2.00000,-5.04456,-4.89438,0.00000,0.00000
2.3200,232,240,0,0,0.01032,0.01001,0.02662,0.02506,0.69982,0.69900,0.70124,0.70169,0.00000,0.00000,2.00000,2.00000,-5.03778,-4.90057,0.00000,0.00000
2.3300,233,240,0,0,0.01011,0.00995,0.02557,0.02476,0.70048,0.69913,0.69871,0.70405,0.00000,0.00000,2.00000,2.00000,-5.05075,-4.90447,0.00000,0.00000
2.3400,234,240,0,0,0.01014,0.00984,0.02568,0.02422,0.70231,0.70046,0.69552,0.70242,0.00000,0.00000,2.00000,2.00000,-5.04460,-4.90593,0.00000,0.00000
2.3500,235,240,0,0,0.01044,0.01016,0.02719,0.02581,0.70202,0.70075,0.69680,0.70068,0.00000,0.00000,2.00000,2.00000,-5.05156,-4.89233,0.00000,0.00000
2.3600,236,240,0,0,0.00998,0.01030,0.02492,0.02652,0.70070,0.69864,0.69993,0.69804,0.00000,0.00000,2.00000,2.00000,-5.04948,-4.90126,0.00000,0.00000
2.3700,237,240,0,0,0.01024,0.01057,0.02622,0.02785,0.70193,0.69747,0.70002,0.70112,0.00000,0.00000,2.00000,2.00000,-5.04199,-4.90922,0.00000,0.00000
2.3800,238,240,0,0,0.01040,0.01061,0.02699,0.02805,0.70126,0.69967,0.69946,0.70151,0.00000,0.00000,2.00000,2.00000,-5.03370,-4.92142,0.00000,0.00000
2.3900,239,240,0,0,0.01034,0.01060,0.02671,0.02799,0.70316,0.70233,0.69655,0.70184,0.00000,0.00000,2.00000,2.00000,-5.03269,-4.93396,0.00000,0.00000
2.4000,240,240,0,0,0.01030,0.01081,0.02649,0.02904,0.70197,0.70423,0.69824,0.70646,0.00000,0.00000,2.00000,2.00000,-5.02448,-4.94320,0.00000,0.00000
2.4100,241,240,0,0,0.01046,0.01080,0.02730,0.02899,0.70216,0.70340,0.69981,0.70522,0.00000,0.00000,2.00000,2.00000,-5.02460,-4.94536,0.00000,0.00000
2.4200,242,240,0,0,0.01060,0.01070,0.02801,0.02852,0.70057,0.70196,0.69693,0.70165,0.00000,0.00000,2.00000,2.00000,-5.01750,-4.94460,0.00000,0.00000
2.4300,243,240,0,0,0.01029,0.01095,0.02646,0.02973,0.70128,0.70083,0.69964,0.70088,0.00000,0.00000,2.00000,2.00000,-5.02535,-4.93638,0.00000,0.00000
2.4400,244,240,0,0,0.01003,0.01082,0.02516,0.02911,0.69712,0.69916,0.70099,0.69904,0.00000,0.00000,2.00000,2.00000,-5.01711,-4.94900,0.00000,0.00000
2.4500,245,240,0,0,0.01009,0.01064,0.02545,0.02820,0.69601,0.70055,0.70258,0.69865,0.00000,0.00000,2.00000,2.00000,-5.00999,-4.95816,0.00000,0.00000
2.4600,246,240,0,0,0.01029,0.01039,0.02645,0.02695,0.69718,0.70298,0.70283,0.69836,0.00000,0.00000,2.00000,2.00000,-4.99355,-4.94801,0.00000,0.00000
2.4700,247,240,0,0,0.01039,0.01055,0.02695,0.02773,0.69706,0.70368,0.70313,0.69784,0.00000,0.00000,2.00000,2.00000,-4.98274,-4.95151,0.00000,0.00000
2.4800,248,240,0,0,0.01038,0.01078,0.02688,0.02889,0.69824,0.70188,0.70313,0.69615,0.00000,0.00000,2.00000,2.00000,-4.96767,-4.95277,0.00000,0.00000
2.4900,249,240,0,0,0.01045,0.01066,0.02724,0.02832,0.69553,0.70169,0.70370,0.69982,0.00000,0.00000,2.00000,2.00000,-4.96854,-4.96363,0.00000,0.00000
2.5000,250,240,0,0,0.01061,0.01088,0.02806,0.02939,0.69669,0.70549,0.69970,0.70036,0.00000,0.00000,2.00000,2.00000,-4.95085,-4.97580,0.00000,0.00000
2.5100,251,240,0,0,0.01074,0.01032,0.02871,0.02658,0.69581,0.70563,0.69732,0.69989,0.00000,0.00000,2.00000,2.00000,-4.93913,-4.97164,0.00000,0.00000
2.5200,252,240,0,0,0.01102,0.01033,0.03012,0.02663,0.69944,0.70352,0.69684,0.70116,0.00000,0.00000,2.00000,2.00000,-4.94811,-4.98331,0.00000,0.00000
2.5300,253,240,0,0,0.01089,0.01034,0.02946,0.02669,0.69930,0.70262,0.69749,0.70162,0.00000,0.00000,2.00000,2.00000,-4.94134,-4.98212,0.00000,0.00000
2.5400,254,240,0,0,0.01077,0.01020,0.02885,0.02598,0.69888,0.70023,0.69882,0.70163,0.00000,0.00000,2.00000,2.00000,-4.92939,-4.98069,0.00000,0.00000
2.5500,255,240,0,0,0.01073,0.01077,0.02865,0.02887,0.69871,0.69906,0.69967,0.70231,0.00000,0.00000,2.00000,2.00000,-4.92293,-4.97148,0.00000,0.00000
2.5600,256,240,0,0,0.01032,0.01066,0.02662,0.02828,0.69911,0.69902,0.70160,0.70190,0.00000,0.00000,2.00000,2.00000,-4.89576,-4.97638,0.00000,0.00000
2.5700,257,240,0,0,0.01059,0.01050,0.02794,0.02749,0.69843,0.69947,0.70305,0.70248,0.00000,0.00000,2.00000,2.00000,-4.89335,-4.97755,0.00000,0.00000
2.5800,258,240,0,0,0.01036,0.01048,0.02679,0.02738,0.69803,0.69872,0.70078,0.70304,0.00000,0.00000,2.00000,2.00000,-4.88259,-4.96653,0.00000,0.00000
2.5900,259,240,0,0,0.01007,0.01002,0.02533,0.02508,0.69784,0.69788,0.70096,0.70247,0.00000,0.00000,2.00000,2.00000,-4.88928,-4.95577,0.00000,0.00000
2.6000,260,240,0,0,0.01036,0.00996,0.02680,0.02478,0.70056,0.70036,0.69930,0.70143,0.00000,0.00000,2.00000,2.00000,-4.89229,-4.94873,0.00000,0.00000
2.6100,261,240,0,0,0.01051,0.01029,0.02757,0.02646,0.70298,0.69854,0.69918,0.70356,0.00000,0.00000,2.00000,2.00000,-4.89594,-4.94902,0.00000,0.00000
2.6200,262,240,0,0,0.01046,0.01018,0.02730,0.02592,0.70200,0.69971,0.69994,0.70180,0.00000,0.00000,2.00000,2.00000,-4.90538,-4.94560,0.00000,0.00000
2.6300,263,240,0,0,0.01016,0.01006,0.02578,0.02531,0.69985,0.69910,0.69435,0.70195,0.00000,0.00000,2.00000,2.00000,-4.91358,-4.95192,0.00000,0.00000
2.6400,264,240,0,0,0.01038,0.01044,0.02691,0.02721,0.70016,0.70012,0.69986,0.70209,0.00000,0.00000,2.00000,2.00000,-4.90731,-4.95632,0.00000,0.00000
2.6500,265,240,0,0,0.01091,0.01072,0.02954,0.02862,0.69771,0.70136,0.70083,0.70052,0.00000,0.00000,2.00000,2.00000,-4.89936,-4.96031,0.00000,0.00000
2.6600,266,240,0,0,0.01026,0.01075,0.02628,0.02874,0.69956,0.70012,0.69962,0.69905,0.00000,0.00000,2.00000,2.00000,-4.90118,-4.94655,0.00000,0.00000
2.6700,267,240,0,0,0.01006,0.01055,0.02532,0.02777,0.70245,0.70118,0.70289,0.69873,0.00000,0.00000,2.00000,2.00000,-4.90184,-4.94560,0.00000,0.00000
2.6800,268,240,0,0,0.01016,0.01046,0.02580,0.02729,0.70036,0.70435,0.70153,0.69827,0.00000,0.00000,2.00000,2.00000,-4.92359,-4.94596,0.00000,0.00000
2.6900,269,240,0,0,0.01024,0.01027,0.02622,0.02633,0.70189,0.70399,0.70133,0.69635,0.00000,0.00000,2.00000,2.00000,-4.94104,-4.93602,0.00000,0.00000
2.7000,270,240,0,0,0.01023,0.01009,0.02615,0.02543,0.70150,0.70347,0.70016,0.69628,0.00000,0.00000,2.00000,2.00000,-4.94059,-4.92416,0.00000,0.00000
2.7100,271,240,0,0,0.01053,0.00994,0.02767,0.02471,0.69708,0.70158,0.70283,0.69773,0.00000,0.00000,2.00000,2.00000,-4.95440,-4.94451,0.00000,0.00000
2.7200,272,240,0,0,0.01038,0.00993,0.02692,0.02466,0.70035,0.70216,0.70189,0.70043,0.00000,0.00000,2.00000,2.00000,-4.95974,-4.95327,0.00000,0.00000
2.7300,273,240,0,0,0.01059,0.00983,0.02796,0.02417,0.69996,0.70182,0.70161,0.70123,0.00000,0.00000,2.00000,2.00000,-4.96606,-4.95524,0.00000,0.00000
2.7400,274,240,0,0,0.01079,0.00965,0.02896,0.02323,0.69782,0.69869,0.70315,0.69662,0.00000,0.00000,2.00000,2.00000,-4.97996,-4.95826,0.00000,0.00000
2.7500,275,240,0,0,0.01072,0.00990,0.02862,0.02450,0.69979,0.70072,0.70325,0.69860,0.00000,0.00000,2.00000,2.00000,-4.99746,-4.95579,0.00000,0.00000
2.7600,276,240,0,0,0.01071,0.01009,0.02856,0.02544,0.69830,0.70316,0.70227,0.69807,0.00000,0.00000,2.00000,2.00000,-4.99354,-4.94619,0.00000,0.00000
2.7700,277,240,0,0,0.01008,0.01055,0.02542,0.02773,0.69909,0.70047,0.70347,0.69934,0.00000,0.00000,2.00000,2.00000,-4.99109,-4.94086,0.00000,0.00000
2.7800,278,240,0,0,0.01017,0.01036,0.02585,0.02680,0.69745,0.70064,0.70669,0.69950,0.00000,0.00000,2.00000,2.00000,-4.99459,-4.92655,0.00000,0.00000
2.7900,279,240,0,0,0.00998,0.01044,0.02491,0.02718,0.69560,0.70196,0.70538,0.69932,0.00000,0.00000,2.00000,2.00000,-4.99812,-4.90747,0.00000,0.00000
2.8000,280,240,0,0,0.01015,0.01049,0.02576,0.02747,0.69875,0.70209,0.70410,0.69934,0.00000,0.00000,2.00000,2.00000,-4.99278,-4.89318,0.00000,0.00000
2.8100,281,240,0,0,0.01049,0.01041,0.02746,0.02707,0.69847,0.70028,0.70326,0.69948,0.00000,0.00000,2.00000,2.00000,-4.98805,-4.89298,0.00000,0.00000
2.8200,282,240,0,0,0.01052,0.01057,0.02760,0.02786,0.69704,0.69883,0.70452,0.70183,0.00000,0.00000,2.00000,2.00000,-4.98748,-4.88543,0.00000,0.00000
2.8300,283,240,0,0,0.01048,0.01070,0.02739,0.02848,0.69800,0.69929,0.70230,0.70130,0.00000,0.00000,2.00000,2.00000,-4.96682,-4.88826,0.00000,0.00000
2.8400,284,240,0,0,0.01082,0.01069,0.02912,0.02843,0.69880,0.70045,0.70121,0.70273,0.00000,0.00000,2.00000,2.00000,-4.96762,-4.87690,0.00000,0.00000
2.8500,285,240,0,0,0.01075,0.01055,0.02874,0.02776,0.70232,0.69908,0.69835,0.70352,0.00000,0.00000,2.00000,2.00000,-4.96326,-4.87358,0.00000,0.00000
2.8600,286,240,0,0,0.01063,0.01043,0.02817,0.02716,0.69881,0.70197,0.69686,0.70365,0.00000,0.00000,2.00000,2.00000,-4.96802,-4.89105,0.00000,0.00000
2.8700,287,240,0,0,0.01078,0.01012,0.02891,0.02562,0.69751,0.70365,0.69687,0.69972,0.00000,0.00000,2.00000,2.00000,-4.95705,-4.90558,0.00000,0.00000
2.8800,288,240,0,0,0.01061,0.01002,0.02806,0.02511,0.69604,0.70594,0.69763,0.70163,0.00000,0.00000,2.00000,2.00000,-4.95142,-4.92820,0.00000,0.00000
2.8900,289,240,0,0,0.01101,0.00999,0.03005,0.02495,0.69689,0.70362,0.70119,0.70043,0.00000,0.00000,2.00000,2.00000,-4.95791,-4.93905,0.00000,0.00000
2.9000,290,240,0,0,0.01077,0.00986,0.02883,0.02428,0.69571,0.70268,0.70174,0.70149,0.00000,0.00000,2.00000,2.00000,-4.95745,-4.94584,0.00000,0.00000
2.9100,291,240,0,0,0.01089,0.01010,0.02947,0.02551,0.69401,0.70214,0.69977,0.69948,0.00000,0.00000,2.00000,2.00000,-4.97053,-4.95047,0.00000,0.00000
2.9200,292,240,0,0,0.01058,0.01045,0.02791,0.02723,0.69672,0.70053,0.69864,0.69768,0.00000,0.00000,2.00000,2.00000,-4.97973,-4.93926,0.00000,0.00000
2.9300,293,240,0,0,0.01031,0.01023,0.02655,0.02617,0.69890,0.69849,0.70127,0.70156,0.00000,0.00000,2.00000,2.00000,-4.99574,-4.94611,0.00000,0.00000
2.9400,294,240,0,0,0.01059,0.01034,0.02796,0.02671,0.69866,0.69796,0.70277,0.69956,0.00000,0.00000,2.00000,2.00000,-4.99675,-4.96113,0.00000,0.00000
2.9500,295,240,0,0,0.01052,0.01013,0.02762,0.02565,0.70065,0.69996,0.70206,0.70156,0.00000,0.00000,2.00000,2.00000,-4.99129,-4.98075,0.00000,0.00000
2.9600,296,240,0,0,0.01043,0.01014,0.02716,0.02569,0.70218,0.69817,0.70077,0.70133,0.00000,0.00000,2.00000,2.00000,-4.99280,-4.99750,0.00000,0.00000
2.9700,297,240,0,0,0.01046,0.01006,0.02731,0.02529,0.70336,0.70093,0.70241,0.70028,0.00000,0.00000,2.00000,2.00000,-4.98892,-5.00168,0.00000,0.00000
2.9800,298,240,0,0,0.01010,0.01028,0.02548,0.02642,0.70223,0.69930,0.70012,0.70013,0.00000,0.00000,2.00000,2.00000,-4.97298,-5.00058,0.00000,0.00000
2.9900,299,240,0,0,0.01024,0.01017,0.02618,0.02583,0.70278,0.69879,0.70073,0.69795,0.00000,0.00000,2.00000,2.00000,-4.96465,-5.01024,0.00000,0.00000
3.0000,300,240,0,0,0.01006,0.01045,0.02529,0.02726,0.70234,0.69894,0.70426,0.69849,0.00000,0.00000,2.00000,2.00000,-4.96361,-5.00451,0.00000,0.00000
3.0100,301,240,0,0,0.01014,0.01038,0.02569,0.02692,0.70052,0.69806,0.70343,0.69713,0.00000,0.00000,2.00000,2.00000,-4.96767,-4.99831,0.00000,0.00000
3.0200,302,240,0,0,0.01037,0.01025,0.02687,0.02623,0.70226,0.69752,0.70122,0.69726,0.00000,0.00000,2.00000,2.00000,-4.96449,-4.99269,0.00000,0.00000
3.0300,303,240,0,0,0.01031,0.01001,0.02653,0.02507,0.70253,0.70025,0.70156,0.69953,0.00000,0.00000,2.00000,2.00000,-4.96951,-4.99537,0.00000,0.00000
3.0400,304,240,0,0,0.01072,0.01018,0.02860,0.02588,0.70193,0.69773,0.70036,0.70008,0.00000,0.00000,2.00000,2.00000,-4.96902,-4.99676,0.00000,0.00000
3.0500,305,240,0,0,0.01077,0.01043,0.02883,0.02716,0.70329,0.69925,0.69797,0.69762,0.00000,0.00000,2.00000,2.00000,-4.95912,-4.99492,0.00000,0.00000
3.0600,306,240,0,0,0.01055,0.01048,0.02776,0.02742,0.70368,0.69880,0.69968,0.69967,0.00000,0.00000,2.00000,2.00000,-4.95300,-4.98836,0.00000,0.00000
3.0700,307,240,0,0,0.01026,0.01095,0.02629,0.02976,0.69994,0.69895,0.70160,0.69975,0.00000,0.00000,2.00000,2.00000,-4.95083,-4.98281,0.00000,0.00000
3.0800,308,240,0,0,0.01012,0.01111,0.02561,0.03057,0.70299,0.69967,0.70065,0.69893,0.00000,0.00000,2.00000,2.00000,-4.96270,-4.97386,0.00000,0.00000
3.0900,309,240,0,0,0.01039,0.01085,0.02697,0.02925,0.70296,0.69739,0.69985,0.70045,0.00000,0.00000,2.00000,2.00000,-4.96773,-4.97633,0.00000,0.00000
3.1000,310,240,0,0,0.01046,0.01066,0.02732,0.02829,0.70060,0.69776,0.69831,0.70005,0.00000,0.00000,2.00000,2.00000,-4.96084,-4.97971,0.00000,0.00000
3.1100,311,240,0,0,0.01057,0.01069,0.02784,0.02845,0.70153,0.69934,0.69853,0.69812,0.00000,0.00000,2.00000,2.00000,-4.95795,-4.97352,0.00000,0.00000
3.1200,312,240,0,0,0.01055,0.01043,0.02774,0.02714,0.70314,0.70200,0.69801,0.70167,0.00000,0.00000,2.00000,2.00000,-4.95671,-4.97766,0.00000,0.00000
3.1300,313,240,0,0,0.01027,0.01068,0.02635,0.02838,0.70447,0.69989,0.69689,0.70119,0.00000,0.00000,2.00000,2.00000,-4.95486,-4.99248,0.00000,0.00000
3.1400,314,240,0,0,0.01063,0.01068,0.02814,0.02839,0.70318,0.69865,0.70085,0.70073,0.00000,0.00000,2.00000,2.00000,-4.95679,-5.00335,0.00000,0.00000
3.1500,315,240,0,0,0.01049,0.01066,0.02743,0.02829,0.70074,0.69846,0.70138,0.69986,0.00000,0.00000,2.00000,2.00000,-4.94441,-5.02084,0.00000,0.00000
3.1600,316,240,0,0,0.01056,0.01074,0.02781,0.02869,0.70181,0.69946,0.70195,0.70184,0.00000,0.00000,2.00000,2.00000,-4.94008,-5.03444,0.00000,0.00000
3.1700,317,240,0,0,0.01047,0.01102,0.02737,0.03012,0.69964,0.69784,0.70286,0.70047,0.00000,0.00000,2.00000,2.00000,-4.96143,-5.03749,0.00000,0.00000
3.1800,318,240,0,0,0.01050,0.01089,0.02751,0.02945,0.70293,0.69994,0.70335,0.69781,0.00000,0.00000,2.00000,2.00000,-4.96066,-5.05498,0.00000,0.00000
3.1900,319,240,0,0,0.01040,0.01073,0.02702,0.02866,0.70231,0.69859,0.70175,0.69729,0.00000,0.00000,2.00000,2.00000,-4.94096,-5.06136,0.00000,0.00000
3.2000,320,240,0,0,0.01042,0.01097,0.02712,0.02985,0.70182,0.69804,0.70172,0.70021,0.00000,0.00000,2.00000,2.00000,-4.94738,-5.06037,0.00000,0.00000
3.2100,321,240,0,0,0.01054,0.01103,0.02772,0.03013,0.70390,0.70304,0.70081,0.70152,0.00000,0.00000,2.00000,2.00000,-4.93712,-5.05362,0.00000,0.00000
3.2200,322,240,0,0,0.01060,0.01078,0.02801,0.02892,0.70325,0.69991,0.70131,0.70069,0.00000,0.00000,2.00000,2.00000,-4.94288,-5.05183,0.00000,0.00000
3.2300,323,240,0,0,0.01040,0.01068,0.02700,0.02840,0.70410,0.70070,0.70151,0.70275,0.00000,0.00000,2.00000,2.00000,-4.94110,-5.04853,0.00000,0.00000
3.2400,324,240,0,0,0.01040,0.01065,0.02698,0.02823,0.70457,0.70053,0.70047,0.70323,0.00000,0.00000,2.00000,2.00000,-4.94768,-5.03699,0.00000,0.00000
3.2500,325,240,0,0,0.01005,0.01066,0.02525,0.02829,0.70187,0.70113,0.69816,0.70191,0.00000,0.00000,2.00000,2.00000,-4.94982,-5.03720,0.00000,0.00000
3.2600,326,240,0,0,0.01046,0.01029,0.02731,0.02645,0.69980,0.70019,0.69890,0.70111,0.00000,0.00000,2.00000,2.00000,-4.95269,-5.03531,0.00000,0.00000
3.2700,327,240,0,0,0.01046,0.00998,0.02732,0.02491,0.69901,0.69875,0.69887,0.70135,0.00000,0.00000,2.00000,2.00000,-4.96241,-5.04551,0.00000,0.00000
3.2800,328,240,0,0,0.01073,0.00990,0.02866,0.02451,0.69862,0.69790,0.69607,0.69961,0.00000,0.00000,2.00000,2.00000,-4.95987,-5.05838,0.00000,0.00000
3.2900,329,240,0,0,0.01073,0.00983,0.02867,0.02414,0.69995,0.69893,0.69798,0.69973,0.00000,0.00000,2.00000,2.00000,-4.96729,-5.06163,0.00000,0.00000
3.3000,330,240,0,0,0.01049,0.00984,0.02745,0.02422,0.69889,0.70140,0.70012,0.70031,0.00000,0.00000,2.00000,2.00000,-4.98023,-5.06016,0.00000,0.00000
3.3100,331,240,0,0,0.01018,0.01013,0.02592,0.02567,0.69968,0.70070,0.70424,0.69745,0.00000,0.00000,2.00000,2.00000,-4.98034,-5.04827,0.00000,0.00000
3.3200,332,240,0,0,0.01017,0.01017,0.02584,0.02585,0.69839,0.70151,0.70244,0.69784,0.00000,0.00000,2.00000,2.00000,-4.97857,-5.03715,0.00000,0.00000
3.3300,333,240,0,0,0.00995,0.01028,0.02473,0.02638,0.69716,0.70036,0.70088,0.69793,0.00000,0.00000,2.00000,2.00000,-4.98521,-5.03732,0.00000,0.00000
3.3400,334,240,0,0,0.01006,0.01004,0.02529,0.02521,0.69740,0.70097,0.69882,0.70019,0.00000,0.00000,2.00000,2.00000,-4.98623,-5.04091,0.00000,0.00000
3.3500,335,240,0,0,0.01013,0.01004,0.02565,0.02519,0.69646,0.70160,0.69949,0.69711,0.00000,0.00000,2.00000,2.00000,-4.99069,-5.04944,0.00000,0.00000
3.3600,336,240,0,0,0.01015,0.01027,0.02576,0.02633,0.69666,0.69773,0.69996,0.69727,0.00000,0.00000,2.00000,2.00000,-5.00618,-5.05706,0.00000,0.00000
3.3700,337,240,0,0,0.01038,0.01043,0.02690,0.02717,0.69934,0.69926,0.69864,0.69723,0.00000,0.00000,2.00000,2.00000,-5.01115,-5.05514,0.00000,0.00000
3.3800,338,240,0,0,0.01058,0.01027,0.02789,0.02633,0.69929,0.69875,0.69872,0.69956,0.00000,0.00000,2.00000,2.00000,-5.00504,-5.06255,0.00000,0.00000
3.3900,339,240,0,0,0.01048,0.01034,0.02741,0.02669,0.69947,0.69790,0.69582,0.69961,0.00000,0.00000,2.00000,2.00000,-5.00879,-5.07101,0.00000,0.00000
3.4000,340,240,0,0,0.01013,0.01084,0.02564,0.02918,0.69689,0.69896,0.69849,0.70267,0.00000,0.00000,2.00000,2.00000,-5.02150,-5.07368,0.00000,0.00000
3.4100,341,240,0,0,0.01055,0.01071,0.02777,0.02857,0.69922,0.70033,0.69764,0.70303,0.00000,0.00000,2.00000,2.00000,-5.02026,-5.08038,0.00000,0.00000
3.4200,342,240,0,0,0.01059,0.01048,0.02796,0.02738,0.70133,0.69794,0.69823,0.70152,0.00000,0.00000,2.00000,2.00000,-5.00914,-5.09212,0.00000,0.00000
3.4300,343,240,0,0,0.01061,0.01042,0.02806,0.02708,0.70016,0.70051,0.69637,0.70150,0.00000,0.00000,2.00000,2.00000,-5.00592,-5.09466,0.00000,0.00000
3.4400,344,240,0,0,0.01035,0.01043,0.02677,0.02716,0.69914,0.70085,0.69641,0.70051,0.00000,0.00000,2.00000,2.00000,-4.99403,-5.08835,0.00000,0.00000
3.4500,345,240,0,0,0.01027,0.01039,0.02637,0.02695,0.69721,0.69759,0.69693,0.70178,0.00000,0.00000,2.00000,2.00000,-4.98582,-5.09273,0.00000,0.00000
3.4600,346,240,0,0,0.01030,0.01039,0.02648,0.02693,0.69876,0.69848,0.69775,0.69910,0.00000,0.00000,2.00000,2.00000,-5.00332,-5.09683,0.00000,0.00000
3.4700,347,240,0,0,0.01041,0.01007,0.02705,0.02537,0.69933,0.69886,0.69916,0.69800,0.00000,0.00000,2.00000,2.00000,-4.99860,-5.08028,0.00000,0.00000
3.4800,348,240,0,0,0.01058,0.00995,0.02791,0.02476,0.70272,0.69963,0.70175,0.69929,0.00000,0.00000,2.00000,2.00000,-4.99608,-5.07196,0.00000,0.00000
3.4900,349,240,0,0,0.01047,0.01004,0.02736,0.02521,0.70052,0.70146,0.70248,0.70150,0.00000,0.00000,2.00000,2.00000,-4.98981,-5.07855,0.00000,0.00000
3.5000,350,240,0,0,0.01026,0.01010,0.02629,0.02552,0.70292,0.69862,0.70338,0.69747,0.00000,0.00000,2.00000,2.00000,-4.98596,-5.08303,0.00000,0.00000
3.5100,351,240,0,0,0.01057,0.01006,0.02783,0.02530,0.70146,0.69705,0.70483,0.70042,0.00000,0.00000,2.00000,2.00000,-4.97299,-5.08283,0.00000,0.00000
3.5200,352,240,0,0,0.01065,0.01012,0.02826,0.02558,0.70171,0.69826,0.70444,0.70008,0.00000,0.00000,2.00000,2.00000,-4.96249,-5.07321,0.00000,0.00000
3.5300,353,240,0,0,0.01037,0.01021,0.02685,0.02603,0.69922,0.69980,0.70317,0.69696,0.00000,0.00000,2.00000,2.00000,-4.96156,-5.05743,0.00000,0.00000
3.5400,354,240,0,0,0.01036,0.01045,0.02679,0.02727,0.70069,0.70167,0.70396,0.69286,0.00000,0.00000,2.00000,2.00000,-4.95928,-5.05839,0.00000,0.00000
3.5500,355,240,0,0,0.01039,0.01042,0.02693,0.02709,0.69812,0.69984,0.70464,0.69230,0.00000,0.00000,2.00000,2.00000,-4.96452,-5.05196,0.00000,0.00000
3.5600,356,240,0,0,0.01050,0.01050,0.02750,0.02750,0.69963,0.70187,0.70443,0.69438,0.00000,0.00000,2.00000,2.00000,-4.97773,-5.03374,0.00000,0.00000
3.5700,357,240,0,0,0.01059,0.01035,0.02793,0.02677,0.70272,0.70225,0.70083,0.69581,0.00000,0.00000,2.00000,2.00000,-4.99459,-5.02750,0.00000,0.00000
3.5800,358,240,0,0,0.01040,0.01049,0.02701,0.02746,0.70162,0.70395,0.69922,0.69800,0.00000,0.00000,2.00000,2.00000,-5.00983,-5.00418,0.00000,0.00000
3.5900,359,240,0,0,0.01009,0.01055,0.02544,0.02775,0.70162,0.70549,0.69898,0.69764,0.00000,0.00000,2.00000,2.00000,-5.00737,-4.99888,0.00000,0.00000
3.6000,360,240,0,0,0.00995,0.01070,0.02473,0.02849,0.70169,0.70331,0.70054,0.69647,0.00000,0.00000,2.00000,2.00000,-5.00003,-4.98194,0.00000,0.00000
3.6100,361,240,0,0,0.00971,0.01077,0.02353,0.02886,0.70500,0.70218,0.70036,0.69676,0.00000,0.00000,2.00000,2.00000,-4.98570,-4.97446,0.00000,0.00000
3.6200,362,240,0,0,0.00984,0.01080,0.02419,0.02900,0.70467,0.70047,0.70213,0.69770,0.00000,0.00000,2.00000,2.00000,-4.98291,-4.96315,0.00000,0.00000
3.6300,363,240,0,0,0.01027,0.01067,0.02636,0.02834,0.70162,0.70013,0.70371,0.69871,0.00000,0.00000,2.00000,2.00000,-4.97877,-4.95828,0.00000,0.00000
3.6400,364,240,0,0,0.01040,0.01065,0.02701,0.02824,0.70036,0.70065,0.70466,0.69777,0.00000,0.00000,2.00000,2.00000,-4.97605,-4.96959,0.00000,0.00000
3.6500,365,240,0,0,0.01042,0.01081,0.02712,0.02907,0.70084,0.70061,0.70537,0.69986,0.00000,0.00000,2.00000,2.00000,-4.97480,-4.97333,0.00000,0.00000
3.6600,366,240,0,0,0.01108,0.01056,0.03042,0.02779,0.70100,0.69909,0.70219,0.69888,0.00000,0.00000,2.00000,2.00000,-4.97975,-4.97867,0.00000,0.00000
3.6700,367,240,0,0,0.01078,0.01038,0.02888,0.02688,0.70474,0.69801,0.70239,0.69776,0.00000,0.00000,2.00000,2.00000,-4.97207,-4.99414,0.00000,0.00000
3.6800,368,240,0,0,0.01073,0.01042,0.02865,0.02711,0.70180,0.69984,0.70073,0.69748,0.00000,0.00000,2.00000,2.00000,-4.96690,-5.00674,0.00000,0.00000
3.6900,369,240,0,0,0.01026,0.01051,0.02630,0.02754,0.69724,0.70003,0.69782,0.69993,0.00000,0.00000,2.00000,2.00000,-4.97117,-5.01600,0.00000,0.00000
3.7000,370,240,0,0,0.01019,0.01030,0.02596,0.02649,0.70178,0.70209,0.69795,0.69973,0.00000,0.00000,2.00000,2.00000,-4.96970,-5.02472,0.00000,0.00000
3.7100,371,240,0,0,0.01027,0.01031,0.02636,0.02655,0.69963,0.70252,0.70069,0.69867,0.00000,0.00000,2.00000,2.00000,-4.97228,-5.02605,0.00000,0.00000
3.7200,372,240,0,0,0.01004,0.01031,0.02521,0.02657,0.69868,0.70098,0.70125,0.70055,0.00000,0.00000,2.00000,2.00000,-4.97393,-5.03058,0.00000,0.00000
3.7300,373,240,0,0,0.00974,0.00985,0.02369,0.02426,0.70093,0.69738,0.70423,0.70392,0.00000,0.00000,2.00000,2.00000,-4.96632,-5.03074,0.00000,0.00000
3.7400,374,240,0,0,0.00999,0.00995,0.02497,0.02477,0.69714,0.70065,0.70336,0.70319,0.00000,0.00000,2.00000,2.00000,-4.97039,-5.02430,0.00000,0.00000
3.7500,375,240,0,0,0.01020,0.01004,0.02598,0.02521,0.69840,0.70028,0.70646,0.70434,0.00000,0.00000,2.00000,2.00000,-4.97368,-5.02969,0.00000,0.00000
3.7600,376,240,0,0,0.01025,0.01010,0.02623,0.02552,0.70162,0.69756,0.70498,0.70486,0.00000,0.00000,2.00000,2.00000,-4.98214,-5.02536,0.00000,0.00000
3.7700,377,240,0,0,0.01054,0.01050,0.02768,0.02748,0.69967,0.69798,0.70366,0.70253,0.00000,0.00000,2.00000,2.00000,-4.98651,-5.01965,0.00000,0.00000
3.7800,378,240,0,0,0.01016,0.01020,0.02579,0.02602,0.69917,0.70004,0.70055,0.70188,0.00000,0.00000,2.00000,2.00000,-4.98720,-5.01672,0.00000,0.00000
3.7900,379,240,0,0,0.01021,0.01008,0.02605,0.02538,0.69919,0.69774,0.70223,0.69926,0.00000,0.00000,2.00000,2.00000,-4.97072,-5.03358,0.00000,0.00000
3.8000,380,240,0,0,0.00986,0.00959,0.02430,0.02296,0.69967,0.69613,0.70079,0.69913,0.00000,0.00000,2.00000,2.00000,-4.97338,-5.03093,0.00000,0.00000
3.8100,381,240,0,0,0.00994,0.00971,0.02472,0.02354,0.69861,0.69843,0.69951,0.69834,0.00000,0.00000,2.00000,2.00000,-4.97952,-5.01706,0.00000,0.00000
3.8200,382,240,0,0,0.00995,0.00981,0.02473,0.02406,0.69968,0.70017,0.70175,0.69813,0.00000,0.00000,2.00000,2.00000,-4.98468,-5.02015,0.00000,0.00000
3.8300,383,240,0,0,0.00971,0.00986,0.02357,0.02430,0.69918,0.69906,0.70317,0.69741,0.00000,0.00000,2.00000,2.00000,-4.97750,-5.01795,0.00000,0.00000
3.8400,384,240,0,0,0.01016,0.01025,0.02578,0.02625,0.70072,0.70315,0.70416,0.69765,0.00000,0.00000,2.00000,2.00000,-4.98219,-4.99786,0.00000,0.00000
3.8500,385,240,0,0,0.01046,0.01048,0.02730,0.02740,0.69979,0.70298,0.70243,0.69917,0.00000,0.00000,2.00000,2.00000,-4.98681,-4.98343,0.00000,0.00000
3.8600,386,240,0,0,0.01030,0.01048,0.02649,0.02738,0.70026,0.70228,0.70168,0.69920,0.00000,0.00000,2.00000,2.00000,-5.00774,-4.96692,0.00000,0.00000
3.8700,387,240,0,0,0.01038,0.01037,0.02690,0.02687,0.69936,0.70069,0.70112,0.69636,0.00000,0.00000,2.00000,2.00000,-5.01169,-4.95709,0.00000,0.00000
3.8800,388,240,0,0,0.01048,0.01061,0.02742,0.02803,0.69782,0.69948,0.70210,0.69613,0.00000,0.00000,2.00000,2.00000,-5.00110,-4.94966,0.00000,0.00000
3.8900,389,240,0,0,0.01060,0.01054,0.02801,0.02772,0.69671,0.69917,0.70408,0.69469,0.00000,0.00000,2.00000,2.00000,-5.01077,-4.94599,0.00000,0.00000
3.9000,390,240,0,0,0.01066,0.01033,0.02829,0.02663,0.69921,0.69960,0.70357,0.69655,0.00000,0.00000,2.00000,2.00000,-5.01029,-4.94554,0.00000,0.00000
3.9100,391,240,0,0,0.01053,0.00997,0.02765,0.02485,0.70083,0.69766,0.70583,0.69832,0.00000,0.00000,2.00000,2.00000,-5.00629,-4.93482,0.00000,0.00000
3.9200,392,240,0,0,0.01040,0.00999,0.02700,0.02496,0.70093,0.69799,0.70571,0.69920,0.00000,0.00000,2.00000,2.00000,-4.99696,-4.93851,0.00000,0.00000
3.9300,393,240,0,0,0.01056,0.01027,0.02778,0.02634,0.70071,0.69778,0.70376,0.69813,0.00000,0.00000,2.00000,2.00000,-4.98180,-4.95225,0.00000,0.00000
3.9400,394,240,0,0,0.01067,0.01080,0.02837,0.02902,0.70067,0.70094,0.70409,0.69904,0.00000,0.00000,2.00000,2.00000,-4.97565,-4.94631,0.00000,0.00000
3.9500,395,240,0,0,0.01089,0.01071,0.02947,0.02853,0.69835,0.69887,0.70577,0.69853,0.00000,0.00000,2.00000,2.00000,-4.98487,-4.93688,0.00000,0.00000
3.9600,396,240,0,0,0.01103,0.01045,0.03014,0.02727,0.70149,0.69621,0.70748,0.69707,0.00000,0.00000,2.00000,2.00000,-4.99285,-4.93149,0.00000,0.00000
3.9700,397,240,0,0,0.01070,0.01018,0.02849,0.02590,0.70114,0.69575,0.70738,0.69909,0.00000,0.00000,2.00000,2.00000,-5.00322,-4.93475,0.00000,0.00000
3.9800,398,240,0,0,0.01089,0.01036,0.02944,0.02681,0.69964,0.69491,0.70540,0.70068,0.00000,0.00000,2.00000,2.00000,-5.01476,-4.93029,0.00000,0.00000
3.9900,399,240,0,0,0.01062,0.00999,0.02812,0.02493,0.69973,0.69659,0.70357,0.70205,0.00000,0.00000,2.00000,2.00000,-5.01844,-4.92435,0.00000,0.00000
4.0000,400,240,0,0,0.01042,0.01022,0.02711,0.02610,0.69903,0.69637,0.70354,0.70049,0.00000,0.00000,2.00000,2.00000,-5.00931,-4.92012,0.00000,0.00000
4.0100,401,240,0,0,0.01051,0.01045,0.02753,0.02724,0.70021,0.69953,0.70532,0.70229,0.00000,0.00000,2.00000,2.00000,-4.99155,-4.93708,0.00000,0.00000
4.0200,402,240,0,0,0.01032,0.01053,0.02662,0.02765,0.70166,0.70029,0.70457,0.70086,0.00000,0.00000,2.00000,2.00000,-4.97210,-4.95765,0.00000,0.00000
4.0300,403,240,0,0,0.01057,0.01045,0.02785,0.02723,0.70241,0.70306,0.70407,0.70169,0.00000,0.00000,2.00000,2.00000,-4.98171,-4.97849,0.00000,0.00000
4.0400,404,240,0,0,0.01062,0.01056,0.02808,0.02779,0.70144,0.70160,0.70304,0.70039,0.00000,0.00000,2.00000,2.00000,-4.98823,-4.98804,0.00000,0.00000
4.0500,405,240,0,0,0.01045,0.01055,0.02726,0.02776,0.69890,0.70060,0.70167,0.69992,0.00000,0.00000,2.00000,2.00000,-4.99053,-4.99294,0.00000,0.00000
4.0600,406,240,0,0,0.01045,0.01034,0.02723,0.02670,0.69797,0.70161,0.70095,0.69596,0.00000,0.00000,2.00000,2.00000,-4.98666,-5.01021,0.00000,0.00000
4.0700,407,240,0,0,0.01062,0.01076,0.02812,0.02881,0.70021,0.69870,0.70091,0.69657,0.00000,0.00000,2.00000,2.00000,-4.98982,-5.01706,0.00000,0.00000
4.0800,408,240,0,0,0.01050,0.01059,0.02752,0.02793,0.70203,0.69729,0.70348,0.69766,0.00000,0.00000,2.00000,2.00000,-4.99901,-5.03138,0.00000,0.00000
4.0900,409,240,0,0,0.01058,0.01070,0.02791,0.02852,0.69931,0.69863,0.70214,0.69763,0.00000,0.00000,2.00000,2.00000,-4.99048,-5.04854,0.00000,0.00000
4.1000,410,240,0,0,0.01028,0.01009,0.02639,0.02546,0.70177,0.69776,0.70164,0.70116,0.00000,0.00000,2.00000,2.00000,-4.98662,-5.03577,0.00000,0.00000
4.1100,411,240,0,0,0.01025,0.01046,0.02624,0.02728,0.70154,0.69926,0.69977,0.69893,0.00000,0.00000,2.00000,2.00000,-4.96675,-5.03470,0.00000,0.00000
4.1200,412,240,0,0,0.01033,0.01076,0.02664,0.02881,0.70402,0.69584,0.70101,0.69830,0.00000,0.00000,2.00000,2.00000,-4.94502,-5.02935,0.00000,0.00000
4.1300,413,240,0,0,0.01040,0.01067,0.02702,0.02835,0.70355,0.69480,0.70298,0.69728,0.00000,0.00000,2.00000,2.00000,-4.93850,-5.02863,0.00000,0.00000
4.1400,414,240,0,0,0.01073,0.01072,0.02866,0.02859,0.69975,0.69559,0.70483,0.69710,0.00000,0.00000,2.00000,2.00000,-4.93433,-5.03214,0.00000,0.00000
4.1500,415,240,0,0,0.01063,0.01075,0.02817,0.02877,0.69837,0.69819,0.70384,0.69959,0.00000,0.00000,2.00000,2.00000,-4.93157,-5.03869,0.00000,0.00000
4.1600,416,240,0,0,0.01055,0.01052,0.02774,0.02758,0.69797,0.70025,0.70373,0.70213,0.00000,0.00000,2.00000,2.00000,-4.92238,-5.03660,0.00000,0.00000
4.1700,417,240,0,0,0.01013,0.01060,0.02567,0.02802,0.69771,0.70083,0.70246,0.70039,0.00000,0.00000,2.00000,2.00000,-4.92444,-5.04229,0.00000,0.00000
4.1800,418,240,0,0,0.01002,0.01037,0.02510,0.02685,0.70004,0.69910,0.70265,0.69910,0.00000,0.00000,2.00000,2.00000,-4.92217,-5.03990,0.00000,0.00000
4.1900,419,240,0,0,0.01020,0.01025,0.02601,0.02623,0.70072,0.70052,0.70244,0.69744,0.00000,0.00000,2.00000,2.00000,-4.90033,-5.03696,0.00000,0.00000
4.2000,420,240,0,0,0.01071,0.01053,0.02854,0.02767,0.69915,0.70027,0.70187,0.70029,0.00000,0.00000,2.00000,2.00000,-4.90880,-5.03503,0.00000,0.00000
4.2100,421,240,0,0,0.01063,0.01071,0.02814,0.02856,0.70073,0.69906,0.70158,0.70205,0.00000,0.00000,2.00000,2.00000,-4.91828,-5.03290,0.00000,0.00000
4.2200,422,240,0,0,0.01055,0.01047,0.02774,0.02736,0.69805,0.69722,0.70189,0.70132,0.00000,0.00000,2.00000,2.00000,-4.91872,-5.01688,0.00000,0.00000
4.2300,423,240,0,0,0.01048,0.01029,0.02741,0.02646,0.69608,0.69963,0.70089,0.69866,0.00000,0.00000,2.00000,2.00000,-4.93142,-5.01118,0.00000,0.00000
4.2400,424,240,0,0,0.01032,0.01018,0.02662,0.02590,0.69723,0.70006,0.70025,0.69688,0.00000,0.00000,2.00000,2.00000,-4.93627,-5.00789,0.00000,0.00000
4.2500,425,240,0,0,0.01037,0.01040,0.02686,0.02700,0.69912,0.70046,0.70299,0.69802,0.00000,0.00000,2.00000,2.00000,-4.93812,-5.00502,0.00000,0.00000
4.2600,426,240,0,0,0.01045,0.01018,0.02725,0.02591,0.69951,0.70053,0.70662,0.69946,0.00000,0.00000,2.00000,2.00000,-4.93370,-4.99716,0.00000,0.00000
4.2700,427,240,0,0,0.01085,0.01032,0.02924,0.02660,0.69927,0.69884,0.70283,0.69622,0.00000,0.00000,2.00000,2.00000,-4.91495,-4.99853,0.00000,0.00000
4.2800,428,240,0,0,0.01073,0.01050,0.02864,0.02752,0.69900,0.69858,0.69999,0.69672,0.00000,0.00000,2.00000,2.00000,-4.92008,-5.00603,0.00000,0.00000
4.2900,429,240,0,0,0.01075,0.01046,0.02873,0.02728,0.69969,0.69945,0.69842,0.70028,0.00000,0.00000,2.00000,2.00000,-4.92624,-4.99783,0.00000,0.00000
4.3000,430,240,0,0,0.01086,0.01066,0.02929,0.02831,0.70159,0.70237,0.69868,0.69985,0.00000,0.00000,2.00000,2.00000,-4.92908,-5.00010,0.00000,0.00000
4.3100,431,240,0,0,0.01058,0.01052,0.02791,0.02762,0.70229,0.70057,0.70051,0.70233,0.00000,0.00000,2.00000,2.00000,-4.95357,-4.98119,0.00000,0.00000
4.3200,432,240,0,0,0.01028,0.01044,0.02640,0.02722,0.70457,0.70140,0.70134,0.70276,0.00000,0.00000,2.00000,2.00000,-4.97058,-4.97363,0.00000,0.00000
4.3300,433,240,0,0,0.01028,0.01022,0.02638,0.02609,0.70235,0.70274,0.70126,0.70022,0.00000,0.00000,2.00000,2.00000,-4.97728,-4.95654,0.00000,0.00000
4.3400,434,240,0,0,0.01049,0.01049,0.02744,0.02745,0.70236,0.70558,0.70178,0.69968,0.00000,0.00000,2.00000,2.00000,-4.98112,-4.95669,0.00000,0.00000
4.3500,435,240,0,0,0.01078,0.01030,0.02888,0.02649,0.70156,0.70427,0.70016,0.69956,0.00000,0.00000,2.00000,2.00000,-4.98485,-4.96520,0.00000,0.00000
4.3600,436,240,0,0,0.01091,0.01040,0.02953,0.02701,0.70048,0.70396,0.69971,0.69811,0.00000,0.00000,2.00000,2.00000,-4.99144,-4.96385,0.00000,0.00000
4.3700,437,240,0,0,0.01122,0.01039,0.03109,0.02693,0.70269,0.70025,0.69976,0.69704,0.00000,0.00000,2.00000,2.00000,-5.00666,-4.96258,0.00000,0.00000
4.3800,438,240,0,0,0.01085,0.01016,0.02925,0.02580,0.70222,0.70154,0.69722,0.70032,0.00000,0.00000,2.00000,2.00000,-5.02054,-4.97181,0.00000,0.00000
4.3900,439,240,0,0,0.01070,0.01009,0.02852,0.02546,0.70210,0.69896,0.69608,0.69863,0.00000,0.00000,2.00000,2.00000,-5.03829,-4.97245,0.00000,0.00000
4.4000,440,240,0,0,0.01034,0.01048,0.02671,0.02740,0.70111,0.69875,0.69531,0.70078,0.00000,0.00000,2.00000,2.00000,-5.04054,-4.96092,0.00000,0.00000
4.4100,441,240,0,0,0.01056,0.01050,0.02780,0.02751,0.70061,0.70099,0.69785,0.69985,0.00000,0.00000,2.00000,2.00000,-5.04915,-4.95783,0.00000,0.00000
4.4200,442,240,0,0,0.01087,0.01025,0.02936,0.02626,0.69912,0.70184,0.69884,0.69985,0.00000,0.00000,2.00000,2.00000,-5.05101,-4.96588,0.00000,0.00000
4.4300,443,240,0,0,0.01085,0.01036,0.02927,0.02680,0.69782,0.70008,0.70016,0.70081,0.00000,0.00000,2.00000,2.00000,-5.04847,-4.97650,0.00000,0.00000
4.4400,444,240,0,0,0.01075,0.01034,0.02874,0.02669,0.69562,0.69808,0.69710,0.69961,0.00000,0.00000,2.00000,2.00000,-5.04773,-4.98851,0.00000,0.00000
4.4500,445,240,0,0,0.01070,0.01111,0.02849,0.03056,0.69685,0.69957,0.69545,0.70065,0.00000,0.00000,2.00000,2.00000,-5.03851,-5.00992,0.00000,0.00000
4.4600,446,240,0,0,0.01045,0.01098,0.02723,0.02990,0.69800,0.69867,0.69779,0.69711,0.00000,0.00000,2.00000,2.00000,-5.02821,-5.03409,0.00000,0.00000
4.4700,447,240,0,0,0.01023,0.01074,0.02614,0.02869,0.69852,0.69918,0.69383,0.69862,0.00000,0.00000,2.00000,2.00000,-5.00781,-5.04189,0.00000,0.00000
4.4800,448,240,0,0,0.01021,0.01096,0.02605,0.02978,0.70112,0.69862,0.69753,0.69494,0.00000,0.00000,2.00000,2.00000,-5.01784,-5.04287,0.00000,0.00000
4.4900,449,240,0,0,0.01024,0.01040,0.02620,0.02700,0.70155,0.70063,0.69521,0.69596,0.00000,0.00000,2.00000,2.00000,-5.02781,-5.05367,0.00000,0.00000
4.5000,450,240,0,0,0.01021,0.01042,0.02603,0.02711,0.69942,0.69715,0.69791,0.69847,0.00000,0.00000,2.00000,2.00000,-5.01285,-5.05579,0.00000,0.00000
4.5100,451,240,0,0,0.01000,0.01085,0.02500,0.02926,0.70078,0.69573,0.69702,0.69991,0.00000,0.00000,2.00000,2.00000,-5.01001,-5.06450,0.00000,0.00000
4.5200,452,240,0,0,0.01021,0.01070,0.02607,0.02851,0.70138,0.69517,0.69956,0.69780,0.00000,0.00000,2.00000,2.00000,-5.03053,-5.05500,0.00000,0.00000
4.5300,453,240,0,0,0.01021,0.01024,0.02603,0.02620,0.69960,0.69724,0.70495,0.69648,0.00000,0.00000,2.00000,2.00000,-5.04423,-5.04870,0.00000,0.00000
4.5400,454,240,0,0,0.01029,0.01020,0.02643,0.02599,0.69950,0.69479,0.69986,0.69631,0.00000,0.00000,2.00000,2.00000,-5.05471,-5.04254,0.00000,0.00000
4.5500,455,240,0,0,0.01052,0.01057,0.02762,0.02786,0.70005,0.70049,0.70104,0.69763,0.00000,0.00000,2.00000,2.00000,-5.05604,-5.03536,0.00000,0.00000
4.5600,456,240,0,0,0.01019,0.01061,0.02597,0.02803,0.69888,0.70026,0.69779,0.69494,0.00000,0.00000,2.00000,2.00000,-5.04074,-5.03216,0.00000,0.00000
4.5700,457,240,0,0,0.01046,0.01037,0.02730,0.02683,0.69821,0.70007,0.69909,0.69630,0.00000,0.00000,2.00000,2.00000,-5.03289,-5.01883,0.00000,0.00000
4.5800,458,240,0,0,0.01060,0.01023,0.02799,0.02613,0.69613,0.70006,0.69900,0.69783,0.00000,0.00000,2.00000,2.00000,-5.03026,-5.01722,0.00000,0.00000
4.5900,459,240,0,0,0.01058,0.01015,0.02789,0.02575,0.69910,0.70114,0.69949,0.69796,0.00000,0.00000,2.00000,2.00000,-5.04293,-5.02305,0.00000,0.00000
4.6000,460,240,0,0,0.01045,0.01030,0.02727,0.02649,0.70094,0.69950,0.69813,0.69938,0.00000,0.00000,2.00000,2.00000,-5.04088,-5.01806,0.00000,0.00000
4.6100,461,240,0,0,0.01080,0.01062,0.02901,0.02810,0.70221,0.69771,0.69992,0.69992,0.00000,0.00000,2.00000,2.00000,-5.04109,-5.01829,0.00000,0.00000
4.6200,462,240,0,0,0.01056,0.01079,0.02780,0.02895,0.70041,0.69780,0.69757,0.69905,0.00000,0.00000,2.00000,2.00000,-5.03463,-5.01928,0.00000,0.00000
4.6300,463,240,0,0,0.01024,0.01078,0.02620,0.02891,0.69915,0.69828,0.70027,0.69613,0.00000,0.00000,2.00000,2.00000,-5.02754,-5.02189,0.00000,0.00000
4.6400,464,240,0,0,0.01040,0.01039,0.02700,0.02693,0.69795,0.69949,0.69953,0.69741,0.00000,0.00000,2.00000,2.00000,-5.03703,-5.02371,0.00000,0.00000
4.6500,465,240,0,0,0.01059,0.01010,0.02796,0.02550,0.70052,0.70015,0.69735,0.69655,0.00000,0.00000,2.00000,2.00000,-5.03734,-5.03713,0.00000,0.00000
4.6600,466,240,0,0,0.01086,0.01030,0.02929,0.02649,0.70162,0.70077,0.70070,0.69655,0.00000,0.00000,2.00000,2.00000,-5.05696,-5.04274,0.00000,0.00000
4.6700,467,240,0,0,0.01085,0.01003,0.02925,0.02516,0.70050,0.70429,0.70040,0.69828,0.00000,0.00000,2.00000,2.00000,-5.06228,-5.04551,0.00000,0.00000
4.6800,468,240,0,0,0.01083,0.01008,0.02917,0.02541,0.69854,0.70269,0.70342,0.70108,0.00000,0.00000,2.00000,2.00000,-5.05666,-5.03165,0.00000,0.00000
4.6900,469,240,0,0,0.01106,0.01024,0.03028,0.02618,0.69675,0.70265,0.70449,0.70072,0.00000,0.00000,2.00000,2.00000,-5.05906,-5.02355,0.00000,0.00000
4.7000,470,240,0,0,0.01051,0.01003,0.02754,0.02516,0.69915,0.70288,0.70195,0.70143,0.00000,0.00000,2.00000,2.00000,-5.05781,-5.02019,0.00000,0.00000
4.7100,471,240,0,0,0.01062,0.00991,0.02810,0.02454,0.69873,0.70389,0.70128,0.69867,0.00000,0.00000,2.00000,2.00000,-5.05741,-5.02884,0.00000,0.00000
4.7200,472,240,0,0,0.01056,0.01002,0.02778,0.02511,0.69716,0.70058,0.70113,0.69944,0.00000,0.00000,2.00000,2.00000,-5.05378,-5.03496,0.00000,0.00000
4.7300,473,240,0,0,0.01035,0.01024,0.02677,0.02618,0.70264,0.70087,0.70332,0.69949,0.00000,0.00000,2.00000,2.00000,-5.04552,-5.02915,0.00000,0.00000
4.7400,474,240,0,0,0.01028,0.01051,0.02639,0.02757,0.70039,0.70200,0.70313,0.70165,0.00000,0.00000,2.00000,2.00000,-5.04766,-5.04188,0.00000,0.00000
4.7500,475,240,0,0,0.01058,0.01062,0.02788,0.02808,0.69845,0.70395,0.70257,0.70031,0.00000,0.00000,2.00000,2.00000,-5.05057,-5.04636,0.00000,0.00000
4.7600,476,240,0,0,0.01095,0.01057,0.02977,0.02786,0.70050,0.70494,0.70153,0.69983,0.00000,0.00000,2.00000,2.00000,-5.06570,-5.04734,0.00000,0.00000
4.7700,477,240,0,0,0.01075,0.01036,0.02875,0.02681,0.69936,0.70103,0.70103,0.70161,0.00000,0.00000,2.00000,2.00000,-5.06318,-5.04262,0.00000,0.00000
4.7800,478,240,0,0,0.01068,0.01014,0.02842,0.02569,0.70093,0.70203,0.70289,0.70102,0.00000,0.00000,2.00000,2.00000,-5.07393,-5.04854,0.00000,0.00000
4.7900,479,240,0,0,0.01063,0.01010,0.02814,0.02549,0.70115,0.70349,0.70211,0.69892,0.00000,0.00000,2.00000,2.00000,-5.07976,-5.07071,0.00000,0.00000
4.8000,480,240,0,0,0.01077,0.01027,0.02885,0.02635,0.69949,0.70494,0.70088,0.70341,0.00000,0.00000,2.00000,2.00000,-5.09114,-5.06387,0.00000,0.00000
4.8100,481,240,0,0,0.01132,0.01038,0.03160,0.02690,0.69971,0.70073,0.69971,0.70070,0.00000,0.00000,2.00000,2.00000,-5.08022,-5.05926,0.00000,0.00000
4.8200,482,240,0,0,0.01047,0.00993,0.02736,0.02463,0.69965,0.70237,0.69888,0.70040,0.00000,0.00000,2.00000,2.00000,-5.08403,-5.05281,0.00000,0.00000
4.8300,483,240,0,0,0.01077,0.00988,0.02887,0.02442,0.69857,0.70226,0.69688,0.70086,0.00000,0.00000,2.00000,2.00000,-5.07631,-5.04688,0.00000,0.00000
4.8400,484,240,0,0,0.01075,0.01029,0.02874,0.02644,0.69898,0.69825,0.69650,0.70107,0.00000,0.00000,2.00000,2.00000,-5.07017,-5.05473,0.00000,0.00000
4.8500,485,240,0,0,0.01079,0.01034,0.02897,0.02668,0.70115,0.69591,0.69992,0.70046,0.00000,0.00000,2.00000,2.00000,-5.07637,-5.05956,0.00000,0.00000
4.8600,486,240,0,0,0.01068,0.01004,0.02841,0.02522,0.70303,0.69812,0.69960,0.70003,0.00000,0.00000,2.00000,2.00000,-5.08558,-5.07658,0.00000,0.00000
4.8700,487,240,0,0,0.01026,0.01066,0.02632,0.02829,0.70401,0.69743,0.70087,0.69964,0.00000,0.00000,2.00000,2.00000,-5.07893,-5.08780,0.00000,0.00000
4.8800,488,240,0,0,0.01049,0.01058,0.02746,0.02790,0.70298,0.69858,0.69656,0.69790,0.00000,0.00000,2.00000,2.00000,-5.07780,-5.08530,0.00000,0.00000
4.8900,489,240,0,0,0.01064,0.01062,0.02821,0.02808,0.70148,0.70407,0.69844,0.70201,0.00000,0.00000,2.00000,2.00000,-5.07406,-5.08059,0.00000,0.00000
4.9000,490,240,0,0,0.01048,0.01064,0.02741,0.02822,0.70339,0.70534,0.69860,0.70110,0.00000,0.00000,2.00000,2.00000,-5.06718,-5.08777,0.00000,0.00000
4.9100,491,240,0,0,0.01023,0.01050,0.02616,0.02748,0.70481,0.70640,0.69819,0.70178,0.00000,0.00000,2.00000,2.00000,-5.06386,-5.08394,0.00000,0.00000
4.9200,492,240,0,0,0.01032,0.01031,0.02658,0.02655,0.70486,0.70324,0.69898,0.70074,0.00000,0.00000,2.00000,2.00000,-5.06651,-5.07698,0.00000,0.00000
4.9300,493,240,0,0,0.01054,0.01080,0.02771,0.02900,0.70399,0.70248,0.69845,0.69996,0.00000,0.00000,2.00000,2.00000,-5.07265,-5.07022,0.00000,0.00000
4.9400,494,240,0,0,0.01052,0.01091,0.02762,0.02955,0.70351,0.70190,0.69538,0.69922,0.00000,0.00000,2.00000,2.00000,-5.06459,-5.08119,0.00000,0.00000
4.9500,495,240,0,0,0.01036,0.01095,0.02681,0.02975,0.70220,0.70256,0.69816,0.69689,0.00000,0.00000,2.00000,2.00000,-5.06018,-5.07291,0.00000,0.00000
4.9600,496,240,0,0,0.01011,0.01093,0.02553,0.02963,0.69929,0.69966,0.69906,0.69748,0.00000,0.00000,2.00000,2.00000,-5.05394,-5.07085,0.00000,0.00000
4.9700,497,240,0,0,0.01028,0.01056,0.02641,0.02781,0.69941,0.69767,0.69881,0.69750,0.00000,0.00000,2.00000,2.00000,-5.05778,-5.06613,0.00000,0.00000
4.9800,498,240,0,0,0.01042,0.01080,0.02708,0.02899,0.70146,0.69835,0.69755,0.70011,0.00000,0.00000,2.00000,2.00000,-5.06910,-5.07486,0.00000,0.00000
4.9900,499,240,0,0,0.01067,0.01050,0.02833,0.02752,0.69904,0.69783,0.69580,0.69811,0.00000,0.00000,2.00000,2.00000,-5.06702,-5.08415,0.00000,0.00000
5.0000,500,240,0,0,0.01068,0.01054,0.02838,0.02769,0.69707,0.69891,0.69732,0.69768,0.00000,0.00000,2.00000,2.00000,-5.07053,-5.08883,0.00000,0.00000
5.0100,501,240,0,0,0.01070,0.01014,0.02849,0.02570,0.69570,0.69975,0.70070,0.69684,0.00000,0.00000,2.00000,2.00000,-5.06744,-5.08638,0.00000,0.00000
5.0200,502,240,0,0,0.01083,0.00976,0.02917,0.02382,0.69778,0.70090,0.70084,0.70007,0.00000,0.00000,2.00000,2.00000,-5.06901,-5.08548,0.00000,0.00000
5.0300,503,240,0,0,0.01026,0.01001,0.02630,0.02504,0.69923,0.70171,0.69834,0.69863,0.00000,0.00000,2.00000,2.00000,-5.06532,-5.08594,0.00000,0.00000
5.0400,504,240,0,0,0.01041,0.00994,0.02706,0.02469,0.69735,0.69890,0.69917,0.69993,0.00000,0.00000,2.00000,2.00000,-5.06625,-5.08885,0.00000,0.00000
5.0500,505,240,0,0,0.01023,0.00963,0.02615,0.02315,0.70136,0.69965,0.69931,0.70154,0.00000,0.00000,2.00000,2.00000,-5.06169,-5.08529,0.00000,0.00000
5.0600,506,240,0,0,0.01008,0.00996,0.02540,0.02479,0.70048,0.69945,0.70092,0.70088,0.00000,0.00000,2.00000,2.00000,-5.04534,-5.07990,0.00000,0.00000
5.0700,507,240,0,0,0.01028,0.01054,0.02640,0.02772,0.70041,0.70089,0.70166,0.69838,0.00000,0.00000,2.00000,2.00000,-5.03241,-5.08381,0.00000,0.00000
5.0800,508,240,0,0,0.01042,0.01081,0.02712,0.02904,0.69919,0.69975,0.69630,0.69658,0.00000,0.00000,2.00000,2.00000,-5.02367,-5.09003,0.00000,0.00000
5.0900,509,240,0,0,0.01046,0.01064,0.02730,0.02820,0.69880,0.69963,0.69821,0.69893,0.00000,0.00000,2.00000,2.00000,-5.02338,-5.09568,0.00000,0.00000
5.1000,510,240,0,0,0.01072,0.01058,0.02861,0.02788,0.70104,0.70107,0.69705,0.69715,0.00000,0.00000,2.00000,2.00000,-5.02332,-5.08507,0.00000,0.00000
5.1100,511,240,0,0,0.01048,0.01072,0.02738,0.02861,0.70008,0.70430,0.69552,0.69858,0.00000,0.00000,2.00000,2.00000,-5.01626,-5.07837,0.00000,0.00000
5.1200,512,240,0,0,0.01053,0.01088,0.02766,0.02940,0.69911,0.70244,0.69644,0.69915,0.00000,0.00000,2.00000,2.00000,-5.01933,-5.09211,0.00000,0.00000
5.1300,513,240,0,0,0.01045,0.01067,0.02727,0.02837,0.69926,0.70360,0.69809,0.70000,0.00000,0.00000,2.00000,2.00000,-5.01613,-5.08896,0.00000,0.00000
5.1400,514,240,0,0,0.01080,0.01061,0.02902,0.02803,0.70164,0.70335,0.69592,0.70078,0.00000,0.00000,2.00000,2.00000,-5.01856,-5.09306,0.00000,0.00000
5.1500,515,240,0,0,0.01052,0.01062,0.02761,0.02808,0.69990,0.70633,0.69819,0.69903,0.00000,0.00000,2.00000,2.00000,-5.02627,-5.08080,0.00000,0.00000
5.1600,516,240,0,0,0.01046,0.01068,0.02730,0.02839,0.70176,0.70424,0.69994,0.69769,0.00000,0.00000,2.00000,2.00000,-5.00990,-5.09600,0.00000,0.00000
5.1700,517,240,0,0,0.01054,0.01057,0.02772,0.02786,0.70307,0.70230,0.70003,0.69950,0.00000,0.00000,2.00000,2.00000,-5.00695,-5.10282,0.00000,0.00000
5.1800,518,240,0,0,0.01101,0.01050,0.03004,0.02750,0.70236,0.69907,0.69860,0.69860,0.00000,0.00000,2.00000,2.00000,-5.01976,-5.09698,0.00000,0.00000
5.1900,519,240,0,0,0.01103,0.01077,0.03017,0.02887,0.70192,0.69645,0.69737,0.69447,0.00000,0.00000,2.00000,2.00000,-5.03838,-5.09672,0.00000,0.00000
5.2000,520,240,0,0,0.01096,0.01094,0.02982,0.02968,0.70378,0.69901,0.69978,0.69705,0.00000,0.00000,2.00000,2.00000,-5.05086,-5.10385,0.00000,0.00000
5.2100,521,240,0,0,0.01084,0.01089,0.02918,0.02947,0.69989,0.70006,0.69736,0.69615,0.00000,0.00000,2.00000,2.00000,-5.04198,-5.10656,0.00000,0.00000
5.2200,522,240,0,0,0.01095,0.01114,0.02975,0.03068,0.69845,0.69950,0.69983,0.69797,0.00000,0.00000,2.00000,2.00000,-5.04290,-5.10389,0.00000,0.00000
5.2300,523,240,0,0,0.01096,0.01085,0.02978,0.02925,0.69869,0.69970,0.69960,0.70082,0.00000,0.00000,2.00000,2.00000,-5.04561,-5.11052,0.00000,0.00000
5.2400,524,240,0,0,0.01073,0.01108,0.02865,0.03041,0.69750,0.69894,0.69956,0.70062,0.00000,0.00000,2.00000,2.00000,-5.05524,-5.11431,0.00000,0.00000
5.2500,525,240,0,0,0.01067,0.01101,0.02834,0.03007,0.69745,0.69791,0.69687,0.70209,0.00000,0.00000,2.00000,2.00000,-5.04907,-5.10767,0.00000,0.00000
5.2600,526,240,0,0,0.01077,0.01156,0.02883,0.03281,0.69659,0.69457,0.69749,0.70177,0.00000,0.00000,2.00000,2.00000,-5.04933,-5.09099,0.00000,0.00000
5.2700,527,240,0,0,0.01052,0.01098,0.02760,0.02991,0.69683,0.69597,0.69918,0.70389,0.00000,0.00000,2.00000,2.00000,-5.04191,-5.09215,0.00000,0.00000
5.2800,528,240,0,0,0.01033,0.01067,0.02666,0.02836,0.69622,0.69730,0.69721,0.70108,0.00000,0.00000,2.00000,2.00000,-5.03581,-5.08725,0.00000,0.00000
5.2900,529,240,0,0,0.01057,0.01069,0.02783,0.02845,0.69694,0.69559,0.69879,0.70077,0.00000,0.00000,2.00000,2.00000,-5.05139,-5.08003,0.00000,0.00000
5.3000,530,240,0,0,0.01075,0.01070,0.02876,0.02849,0.69416,0.69927,0.69927,0.70167,0.00000,0.00000,2.00000,2.00000,-5.04816,-5.07084,0.00000,0.00000
5.3100,531,240,0,0,0.01022,0.01104,0.02611,0.03022,0.69645,0.70030,0.69841,0.70090,0.00000,0.00000,2.00000,2.00000,-5.04119,-5.07186,0.00000,0.00000
5.3200,532,240,0,0,0.01033,0.01072,0.02665,0.02860,0.69686,0.70200,0.70025,0.70254,0.00000,0.00000,2.00000,2.00000,-5.04467,-5.07400,0.00000,0.00000
5.3300,533,240,0,0,0.01028,0.01083,0.02638,0.02916,0.69553,0.69655,0.69656,0.70114,0.00000,0.00000,2.00000,2.00000,-5.04001,-5.07629,0.00000,0.00000
5.3400,534,240,0,0,0.01002,0.01097,0.02511,0.02984,0.69627,0.69710,0.69807,0.70423,0.00000,0.00000,2.00000,2.00000,-5.02149,-5.08789,0.00000,0.00000
5.3500,535,240,0,0,0.01032,0.01097,0.02661,0.02983,0.69876,0.69732,0.70126,0.70655,0.00000,0.00000,2.00000,2.00000,-5.01668,-5.06979,0.00000,0.00000
5.3600,536,240,0,0,0.00992,0.01060,0.02460,0.02800,0.69789,0.69560,0.70328,0.70522,0.00000,0.00000,2.00000,2.00000,-4.99611,-5.06947,0.00000,0.00000
5.3700,537,240,0,0,0.01016,0.01085,0.02582,0.02927,0.70005,0.69589,0.70302,0.70470,0.00000,0.00000,2.00000,2.00000,-4.98162,-5.07187,0.00000,0.00000
5.3800,538,240,0,0,0.01035,0.01100,0.02677,0.03000,0.70014,0.69905,0.70170,0.70537,0.00000,0.00000,2.00000,2.00000,-4.96452,-5.07643,0.00000,0.00000
5.3900,539,240,0,0,0.00971,0.01097,0.02357,0.02983,0.70033,0.69921,0.70019,0.70195,0.00000,0.00000,2.00000,2.00000,-4.96461,-5.08444,0.00000,0.00000
5.4000,540,240,0,0,0.00988,0.01086,0.02441,0.02928,0.70384,0.69848,0.69964,0.69926,0.00000,0.00000,2.00000,2.00000,-4.94999,-5.09070,0.00000,0.00000
5.4100,541,240,0,0,0.01013,0.01078,0.02563,0.02890,0.70363,0.69795,0.70063,0.70153,0.00000,0.00000,2.00000,2.00000,-4.95030,-5.09300,0.00000,0.00000
5.4200,542,240,0,0,0.01022,0.01066,0.02612,0.02830,0.70270,0.69867,0.69913,0.70156,0.00000,0.00000,2.00000,2.00000,-4.95499,-5.08730,0.00000,0.00000
5.4300,543,240,0,0,0.01069,0.01073,0.02845,0.02864,0.70052,0.69585,0.70061,0.70076,0.00000,0.00000,2.00000,2.00000,-4.95232,-5.08625,0.00000,0.00000
5.4400,544,240,0,0,0.01042,0.01065,0.02708,0.02823,0.70338,0.69683,0.70395,0.70057,0.00000,0.00000,2.00000,2.00000,-4.94098,-5.09086,0.00000,0.00000
5.4500,545,240,0,0,0.01047,0.01039,0.02733,0.02696,0.69902,0.69650,0.70277,0.69649,0.00000,0.00000,2.00000,2.00000,-4.93449,-5.08748,0.00000,0.00000
5.4600,546,240,0,0,0.01017,0.01016,0.02583,0.02582,0.70068,0.69846,0.69980,0.69714,0.00000,0.00000,2.00000,2.00000,-4.92811,-5.08323,0.00000,0.00000
5.4700,547,240,0,0,0.01014,0.01006,0.02572,0.02532,0.70240,0.69981,0.69765,0.69669,0.00000,0.00000,2.00000,2.00000,-4.92119,-5.06961,0.00000,0.00000
5.4800,548,240,0,0,0.01051,0.01021,0.02756,0.02603,0.70295,0.70139,0.69957,0.69910,0.00000,0.00000,2.00000,2.00000,-4.93410,-5.06055,0.00000,0.00000
5.4900,549,240,0,0,0.01042,0.01025,0.02711,0.02626,0.70145,0.70213,0.69959,0.70098,0.00000,0.00000,2.00000,2.00000,-4.94483,-5.04450,0.00000,0.00000
5.5000,550,240,0,0,0.01086,0.01034,0.02932,0.02670,0.69966,0.70220,0.70114,0.70166,0.00000,0.00000,2.00000,2.00000,-4.94848,-5.04592,0.00000,0.00000
5.5100,551,240,0,0,0.01064,0.01047,0.02822,0.02733,0.70052,0.70295,0.69995,0.70186,0.00000,0.00000,2.00000,2.00000,-4.94940,-5.05524,0.00000,0.00000
5.5200,552,240,0,0,0.01067,0.01031,0.02836,0.02655,0.70005,0.70179,0.70133,0.69889,0.00000,0.00000,2.00000,2.00000,-4.94592,-5.05404,0.00000,0.00000
5.5300,553,240,0,0,0.01066,0.01066,0.02832,0.02828,0.69914,0.69905,0.70071,0.70016,0.00000,0.00000,2.00000,2.00000,-4.95694,-5.05429,0.00000,0.00000
5.5400,554,240,0,0,0.01074,0.01053,0.02871,0.02764,0.69742,0.69580,0.69931,0.70115,0.00000,0.00000,2.00000,2.00000,-4.95005,-5.05272,0.00000,0.00000
5.5500,555,240,0,0,0.01092,0.01040,0.02959,0.02699,0.69850,0.69386,0.69884,0.70288,0.00000,0.00000,2.00000,2.00000,-4.95217,-5.05143,0.00000,0.00000
5.5600,556,240,0,0,0.01063,0.01050,0.02813,0.02752,0.69898,0.69282,0.69719,0.70557,0.00000,0.00000,2.00000,2.00000,-4.95355,-5.03721,0.00000,0.00000
5.5700,557,240,0,0,0.01048,0.01007,0.02739,0.02537,0.69732,0.69586,0.70123,0.70127,0.00000,0.00000,2.00000,2.00000,-4.95473,-5.03950,0.00000,0.00000
5.5800,558,240,0,0,0.01044,0.00999,0.02719,0.02495,0.69858,0.69633,0.70073,0.70028,0.00000,0.00000,2.00000,2.00000,-4.95586,-5.03592,0.00000,0.00000
5.5900,559,240,0,0,0.01043,0.01032,0.02715,0.02658,0.69672,0.69762,0.70159,0.69899,0.00000,0.00000,2.00000,2.00000,-4.93862,-5.02896,0.00000,0.00000
5.6000,560,240,0,0,0.01078,0.00996,0.02888,0.02480,0.69888,0.69858,0.70027,0.69955,0.00000,0.00000,2.00000,2.00000,-4.94196,-5.02295,0.00000,0.00000
5.6100,561,240,0,0,0.01038,0.01032,0.02689,0.02662,0.69938,0.69944,0.69847,0.69969,0.00000,0.00000,2.00000,2.00000,-4.94073,-5.02633,0.00000,0.00000
5.6200,562,240,0,0,0.01037,0.01068,0.02687,0.02838,0.69966,0.69851,0.69851,0.69939,0.00000,0.00000,2.00000,2.00000,-4.93817,-5.02971,0.00000,0.00000
5.6300,563,240,0,0,0.01036,0.01052,0.02680,0.02760,0.69981,0.69951,0.70072,0.70125,0.00000,0.00000,2.00000,2.00000,-4.94788,-5.03408,0.00000,0.00000
5.6400,564,240,0,0,0.01057,0.01055,0.02786,0.02775,0.69942,0.69747,0.69967,0.69910,0.00000,0.00000,2.00000,2.00000,-4.93814,-5.04156,0.00000,0.00000
5.6500,565,240,0,0,0.01041,0.01075,0.02703,0.02877,0.69802,0.70104,0.69833,0.69763,0.00000,0.00000,2.00000,2.00000,-4.92531,-5.04712,0.00000,0.00000
5.6600,566,240,0,0,0.01047,0.01056,0.02734,0.02778,0.69794,0.69726,0.69904,0.69660,0.00000,0.00000,2.00000,2.00000,-4.91080,-5.04882,0.00000,0.00000
5.6700,567,240,0,0,0.01043,0.01070,0.02714,0.02851,0.69552,0.69541,0.70012,0.69694,0.00000,0.00000,2.00000,2.00000,-4.91582,-5.05698,0.00000,0.00000
5.6800,568,240,0,0,0.01034,0.01047,0.02668,0.02736,0.69782,0.69720,0.70279,0.69576,0.00000,0.00000,2.00000,2.00000,-4.90949,-5.06027,0.00000,0.00000
5.6900,569,240,0,0,0.01046,0.01035,0.02729,0.02674,0.69864,0.69935,0.70261,0.69684,0.00000,0.00000,2.00000,2.00000,-4.91438,-5.07069,0.00000,0.00000
5.7000,570,240,0,0,0.00993,0.01019,0.02464,0.02594,0.50905,0.75235,0.70295,0.69743,0.60000,0.00000,3.00000,2.00000,-5.64731,-5.08346,0.00000,0.00000
5.7100,571,240,0,0,0.00935,0.01032,0.02176,0.02660,0.36891,0.76416,0.70332,0.69684,0.60543,0.00000,3.00000,2.00000,-5.99115,-5.08010,0.00000,0.00000
5.7200,572,240,0,0,0.00876,0.01060,0.01879,0.02798,0.26706,0.74940,0.70052,0.69914,0.61087,0.00000,3.00000,2.00000,-6.04893,-5.08307,0.00000,0.00000
5.7300,573,240,0,0,0.00840,0.01050,0.01700,0.02751,0.19348,0.71633,0.69880,0.69928,0.61630,0.00000,3.00000,2.00000,-5.91415,-5.10011,0.00000,0.00000
5.7400,574,240,0,0,0.00818,0.01020,0.01588,0.02598,0.13990,0.66595,0.69734,0.70122,0.62174,0.00000,3.00000,2.00000,-5.61918,-5.11044,0.00000,0.00000
5.7500,575,240,0,0,0.00813,0.01001,0.01565,0.02507,0.10024,0.60228,0.69588,0.70057,0.62717,0.00000,3.00000,2.00000,-5.19835,-5.11564,0.00000,0.00000
5.7600,576,240,0,0,0.00764,0.01021,0.01321,0.02603,0.07149,0.53179,0.69832,0.70037,0.63261,0.00000,3.00000,2.00000,-4.68023,-5.11780,0.00000,0.00000
5.7700,577,240,0,0,0.00756,0.01066,0.01278,0.02832,0.05128,0.45298,0.69925,0.69935,0.63804,0.00000,3.00000,2.00000,-4.09705,-5.12327,0.00000,0.00000
5.7800,578,240,0,0,0.00747,0.01068,0.01236,0.02839,0.03617,0.37519,0.69959,0.69951,0.64348,0.00000,3.00000,2.00000,-3.44417,-5.13049,0.00000,0.00000
5.7900,579,240,0,0,0.00773,0.01052,0.01363,0.02758,0.02727,0.29414,0.69544,0.70082,0.64891,0.00000,3.00000,2.00000,-2.74121,-5.12803,0.00000,0.00000
5.8000,580,240,0,0,0.00732,0.01065,0.01161,0.02826,0.01874,0.21448,0.70007,0.69992,0.65434,0.00000,3.00000,2.00000,-1.99063,-5.12556,0.00000,0.00000
5.8100,581,240,0,0,0.00722,0.01053,0.01110,0.02765,0.01452,0.15578,0.69858,0.70079,0.65978,0.00000,3.00000,2.00000,-1.20987,-5.10898,0.00000,0.00000
5.8200,582,240,0,0,0.00709,0.01041,0.01044,0.02706,0.00809,0.11151,0.70234,0.69924,0.66521,0.00000,3.00000,2.00000,-0.39280,-5.09164,0.00000,0.00000
5.8300,583,240,0,0,0.00756,0.01020,0.01278,0.02599,0.00504,0.08502,0.69932,0.70069,0.67065,0.00000,3.00000,2.00000,0.45334,-5.08513,0.00000,0.00000
5.8400,584,240,0,0,0.00745,0.01056,0.01224,0.02781,0.00439,0.06071,0.69817,0.69955,0.67608,0.00000,3.00000,2.00000,1.31959,-5.06466,0.00000,0.00000
5.8500,585,240,0,0,0.00755,0.00996,0.01274,0.02481,0.00166,0.04274,0.69505,0.70107,0.68152,0.00000,3.00000,2.00000,2.21030,-5.06132,0.00000,0.00000
5.8600,586,240,0,0,0.00774,0.01026,0.01371,0.02628,0.00202,0.03189,0.69700,0.70088,0.68695,0.00000,3.00000,2.00000,3.11848,-5.04677,0.00000,0.00000
5.8700,587,240,0,0,0.00773,0.01019,0.01364,0.02597,0.00276,0.02289,0.69601,0.70314,0.69238,0.00000,3.00000,2.00000,4.04420,-5.03995,0.00000,0.00000
5.8800,588,240,0,0,0.00754,0.01016,0.01268,0.02580,0.00263,0.01792,0.69534,0.70038,0.69782,0.00000,3.00000,2.00000,4.99426,-5.03725,0.00000,0.00000
5.8900,589,240,0,0,0.00781,0.01060,0.01403,0.02798,0.00114,0.01219,0.69436,0.69785,0.70325,0.00000,3.00000,2.00000,5.95980,-5.03744,0.00000,0.00000
5.9000,590,240,0,0,0.00753,0.01039,0.01264,0.02693,0.00101,0.01061,0.69718,0.69743,0.70869,0.00000,3.00000,2.00000,6.93211,-5.03240,0.00000,0.00000
5.9100,591,240,0,0,0.00781,0.01024,0.01404,0.02621,0.00094,0.01083,0.69912,0.69586,0.71412,0.00000,3.00000,2.00000,7.91984,-5.01751,0.00000,0.00000
5.9200,592,240,0,0,0.00778,0.01026,0.01390,0.02628,0.00257,0.00889,0.70234,0.69472,0.71956,0.00000,3.00000,2.00000,8.91589,-5.00598,0.00000,0.00000
5.9300,593,240,0,0,0.00791,0.01039,0.01454,0.02693,0.00544,0.00688,0.70057,0.69719,0.72499,0.00000,3.00000,2.00000,9.93571,-5.00714,0.00000,0.00000
5.9400,594,240,0,0,0.00735,0.01029,0.01174,0.02647,0.00440,0.00396,0.70078,0.69795,0.73043,0.00000,3.00000,2.00000,10.95145,-5.00196,0.00000,0.00000
5.9500,595,240,0,0,0.00756,0.00998,0.01281,0.02489,0.00116,0.00243,0.69845,0.69772,0.73586,0.00000,3.00000,2.00000,11.98180,-5.00763,0.00000,0.00000
5.9600,596,240,0,0,0.00796,0.00990,0.01479,0.02452,0.00409,0.00131,0.69832,0.69771,0.74129,0.00000,3.00000,2.00000,13.01880,-4.99918,0.00000,0.00000
5.9700,597,240,0,0,0.00787,0.01032,0.01437,0.02660,0.00104,0.00000,0.69793,0.69736,0.74673,0.00000,3.00000,2.00000,14.06994,-5.01204,0.00000,0.00000
5.9800,598,240,0,0,0.00749,0.01036,0.01245,0.02679,0.00193,0.00063,0.69926,0.70079,0.75216,0.00000,3.00000,2.00000,15.11602,-5.01492,0.00000,0.00000
5.9900,599,240,0,0,0.00752,0.01047,0.01259,0.02734,0.00177,0.00046,0.70113,0.69937,0.75760,0.00000,3.00000,2.00000,16.15818,-5.01425,0.00000,0.00000
6.0000,600,240,0,0,0.00770,0.01039,0.01349,0.02696,0.00235,0.00000,0.70245,0.69737,0.76303,0.00000,3.00000,2.00000,17.21152,-5.03706,0.00000,0.00000
6.0100,601,240,0,0,0.00770,0.01025,0.01352,0.02625,0.00113,0.00000,0.70039,0.69940,0.76847,0.00000,3.00000,2.00000,18.25075,-5.06885,0.00000,0.00000
6.0200,602,240,0,0,0.00767,0.01066,0.01333,0.02829,0.00000,0.00000,0.70193,0.69921,0.77390,0.00000,3.00000,2.00000,19.29407,-5.08650,0.00000,0.00000
6.0300,603,240,0,0,0.00792,0.01055,0.01458,0.02773,0.00026,0.00000,0.70133,0.70277,0.77934,0.00000,3.00000,2.00000,20.34302,-5.08969,0.00000,0.00000
6.0400,604,240,0,0,0.00808,0.01041,0.01539,0.02705,0.00000,0.00031,0.70043,0.70115,0.78477,0.00000,3.00000,2.00000,21.38600,-5.08968,0.00000,0.00000
6.0500,605,240,0,0,0.00846,0.01065,0.01732,0.02823,0.00000,0.00000,0.69915,0.70222,0.79020,0.00000,3.00000,2.00000,22.42177,-5.09181,0.00000,0.00000
6.0600,606,240,0,0,0.00862,0.01042,0.01810,0.02711,0.00050,0.00000,0.69846,0.70339,0.79564,0.00000,3.00000,2.00000,23.44655,-5.09335,0.00000,0.00000
6.0700,607,240,0,0,0.00890,0.01029,0.01950,0.02643,0.00000,0.00000,0.70175,0.70161,0.80107,0.00000,3.00000,2.00000,24.47242,-5.09682,0.00000,0.00000
6.0800,608,240,0,0,0.00933,0.01032,0.02163,0.02659,0.00224,0.00000,0.70177,0.69995,0.80651,0.00000,3.00000,2.00000,25.49681,-5.08961,0.00000,0.00000
6.0900,609,240,0,0,0.00984,0.01034,0.02418,0.02671,0.00225,0.00000,0.70157,0.70118,0.81194,0.00000,3.00000,2.00000,26.49650,-5.08997,0.00000,0.00000
6.1000,610,240,0,0,0.01038,0.01041,0.02690,0.02707,0.00310,0.00000,0.70071,0.70180,0.81738,0.00000,3.00000,2.00000,27.50545,-5.09047,0.00000,0.00000
6.1100,611,240,0,0,0.01065,0.01087,0.02825,0.02934,0.00442,0.00000,0.70454,0.69899,0.82281,0.00000,3.00000,2.00000,28.49185,-5.09376,0.00000,0.00000
6.1200,612,240,0,0,0.01105,0.01081,0.03027,0.02907,0.00387,0.00000,0.70544,0.69741,0.82825,0.00000,3.00000,2.00000,29.45447,-5.09346,0.00000,0.00000
6.1300,613,240,0,0,0.01146,0.01018,0.03231,0.02590,0.00313,0.00000,0.70276,0.69396,0.83368,0.00000,3.00000,2.00000,30.41045,-5.09609,0.30000,0.00000
6.1400,614,240,0,0,0.01230,0.01031,0.03649,0.02656,0.00375,0.00000,0.70156,0.69659,0.83911,0.00000,3.00000,2.00000,31.34941,-5.09903,0.60000,0.00000
6.1500,615,240,0,0,0.01263,0.01034,0.03816,0.02672,0.00481,0.00000,0.70078,0.69709,0.84455,0.00000,3.00000,2.00000,32.27507,-5.08459,0.90000,0.00000
6.1600,616,240,0,0,0.01310,0.01037,0.04048,0.02684,0.00285,0.00000,0.70081,0.69762,0.84998,0.00000,3.00000,2.00000,33.19355,-5.08659,1.00000,0.00000
6.1700,617,240,0,0,0.01339,0.01043,0.04197,0.02716,0.00000,0.00000,0.69943,0.69549,0.85542,0.00000,3.00000,2.00000,34.08793,-5.08423,1.00000,0.00000
6.1800,618,240,0,0,0.01380,0.01042,0.04401,0.02708,0.00000,0.00000,0.70031,0.69492,0.86085,0.00000,3.00000,2.00000,34.95190,-5.08661,1.00000,0.00000
6.1900,619,240,0,0,0.01410,0.01040,0.04551,0.02700,0.00000,0.00031,0.70261,0.69553,0.86629,0.00000,3.00000,2.00000,35.80951,-5.09729,1.00000,0.00000
6.2000,620,240,0,0,0.01439,0.01053,0.04697,0.02767,0.00098,0.00179,0.69974,0.69565,0.87172,0.00000,3.00000,2.00000,36.63235,-5.10836,1.00000,0.00000
6.2100,621,240,0,0,0.01476,0.01038,0.04882,0.02689,0.00166,0.00234,0.69796,0.69703,0.87715,0.00000,3.00000,2.00000,37.44242,-5.10445,1.00000,0.00000
6.2200,622,240,0,0,0.01513,0.01018,0.05066,0.02589,0.00337,0.00201,0.69772,0.69880,0.88259,0.00000,3.00000,2.00000,38.22276,-5.10726,1.00000,0.00000
6.2300,623,240,0,0,0.01540,0.01090,0.05199,0.02950,0.00410,0.00003,0.69763,0.70286,0.88802,0.00000,3.00000,2.00000,38.98599,-5.12567,1.00000,0.00000
6.2400,624,240,0,0,0.01543,0.01061,0.05217,0.02803,0.00272,0.00000,0.70156,0.70204,0.89346,0.00000,3.00000,2.00000,39.71209,-5.13035,1.00000,0.00000
6.2500,625,240,0,0,0.01546,0.01057,0.05232,0.02786,0.00000,0.00002,0.70278,0.70332,0.89889,0.00000,3.00000,2.00000,40.42570,-5.11659,1.00000,0.00000
6.2600,626,240,0,0,0.01524,0.01020,0.05119,0.02599,0.00000,0.00000,0.70357,0.70105,0.90433,0.00000,3.00000,2.00000,41.10799,-5.12746,1.00000,0.00000
6.2700,627,240,0,0,0.01498,0.01028,0.04990,0.02639,0.00000,0.00000,0.70216,0.69801,0.90976,0.00000,3.00000,2.00000,41.76246,-5.15006,1.00000,0.00000
6.2800,628,240,0,0,0.01461,0.01011,0.04806,0.02554,0.00000,0.00121,0.70110,0.69797,0.91520,0.00000,3.00000,2.00000,42.39779,-5.14941,1.00000,0.00000
6.2900,629,240,0,0,0.01436,0.01009,0.04678,0.02545,0.00000,0.00090,0.69841,0.69590,0.92063,0.00000,3.00000,2.00000,42.99611,-5.14746,1.00000,0.00000
6.3000,630,240,0,0,0.01393,0.01040,0.04467,0.02702,0.00017,0.00215,0.70013,0.69705,0.92606,0.00000,3.00000,2.00000,43.56174,-5.14779,1.00000,0.00000
6.3100,631,240,0,0,0.01388,0.01051,0.04441,0.02753,0.00057,0.00000,0.70090,0.69658,0.93150,0.00000,3.00000,2.00000,44.09792,-5.14509,1.00000,0.00000
6.3200,632,240,0,0,0.01300,0.01060,0.04002,0.02801,0.00229,0.00178,0.70277,0.69430,0.93693,0.00000,3.00000,2.00000,44.60310,-5.13964,1.00000,0.00000
6.3300,633,240,0,0,0.01252,0.01016,0.03759,0.02579,0.00000,0.00178,0.70166,0.69871,0.94237,0.00000,3.00000,2.00000,45.06731,-5.14886,0.70000,0.00000
6.3400,634,240,0,0,0.01179,0.01063,0.03393,0.02813,0.00000,0.00019,0.70098,0.69818,0.94780,0.00000,3.00000,2.00000,45.51039,-5.14310,0.40000,0.00000
6.3500,635,240,0,0,0.01098,0.01030,0.02992,0.02652,0.00000,0.00000,0.70099,0.69599,0.95324,0.00000,3.00000,2.00000,45.91005,-5.14095,0.10000,0.00000
6.3600,636,240,0,0,0.01049,0.01066,0.02744,0.02832,0.00000,0.00000,0.70218,0.69856,0.95867,0.00000,3.00000,2.00000,46.30182,-5.13746,0.00000,0.00000
6.3700,637,240,0,0,0.01018,0.01082,0.02590,0.02908,0.00000,0.00000,0.69917,0.69776,0.96411,0.00000,3.00000,2.00000,46.64384,-5.13546,0.00000,0.00000
6.3800,638,240,0,0,0.00965,0.01083,0.02325,0.02914,0.00000,0.00000,0.70061,0.70016,0.96954,0.00000,3.00000,2.00000,46.95440,-5.13356,0.00000,0.00000
6.3900,639,240,0,0,0.00964,0.01052,0.02319,0.02762,0.00002,0.00161,0.70041,0.69891,0.97497,0.00000,3.00000,2.00000,47.23264,-5.12392,0.00000,0.00000
6.4000,640,240,0,0,0.00936,0.01052,0.02181,0.02762,0.00358,0.00000,0.69856,0.69832,0.98041,0.00000,3.00000,2.00000,47.46148,-5.12292,0.00000,0.00000
6.4100,641,240,0,0,0.00912,0.01039,0.02061,0.02693,0.00124,0.00000,0.69553,0.69935,0.98584,0.00000,3.00000,2.00000,47.66812,-5.12186,0.00000,0.00000
6.4200,642,240,0,0,0.00863,0.01040,0.01814,0.02698,0.00000,0.00000,0.69653,0.70050,0.99128,0.00000,3.00000,2.00000,47.83470,-5.11587,0.00000,0.00000
6.4300,643,240,0,0,0.00843,0.01034,0.01714,0.02671,0.00000,0.00000,0.69986,0.70163,0.99671,0.00000,3.00000,2.00000,47.97942,-5.12123,0.00000,0.00000
6.4400,644,240,0,0,0.00827,0.00991,0.01637,0.02456,0.00000,0.00000,0.70265,0.70103,0.00224,0.00000,0.00000,2.00000,48.07550,-5.12026,0.00000,0.00000
6.4500,645,240,0,0,0.00820,0.01029,0.01599,0.02646,0.00180,0.00126,0.70251,0.70162,0.00791,0.00000,0.00000,2.00000,48.14186,-5.11351,0.00000,0.00000
6.4600,646,240,0,0,0.00840,0.01030,0.01698,0.02652,0.00099,0.01476,0.70504,0.70240,0.01358,0.00000,0.00000,2.00000,48.16614,-5.11669,0.00000,0.00000
6.4700,647,240,0,0,0.00823,0.01022,0.01616,0.02612,0.00022,0.07184,0.70359,0.70207,0.01925,0.00000,0.00000,2.00000,48.15743,-5.12088,0.00000,0.00000
6.4800,648,240,0,0,0.00823,0.01015,0.01616,0.02575,0.00000,0.16803,0.70417,0.70127,0.02492,0.00000,0.00000,2.00000,48.10727,-5.12703,0.00000,0.00000
6.4900,649,240,0,0,0.00813,0.01030,0.01565,0.02648,0.00000,0.29229,0.70229,0.69855,0.03059,0.00000,0.00000,2.00000,48.01738,-5.12858,0.00000,0.00000
6.5000,650,240,0,0,0.00827,0.01013,0.01636,0.02564,0.00000,0.42987,0.70082,0.69993,0.03626,0.00000,0.00000,2.00000,47.88588,-5.11948,0.00000,0.00000
6.5100,651,240,0,0,0.00827,0.00971,0.01635,0.02355,0.00000,0.58375,0.69948,0.70002,0.04193,0.00000,0.00000,2.00000,47.72304,-5.09707,-0.30000,0.00000
6.5200,652,240,0,0,0.00835,0.00999,0.01676,0.02494,0.00000,0.74493,0.69624,0.69933,0.04759,0.00000,0.00000,2.00000,47.51656,-5.10258,-0.60000,0.00000
6.5300,653,240,0,0,0.00892,0.01021,0.01962,0.02607,0.00000,0.91448,0.69938,0.70162,0.05326,0.00000,1.00000,2.00000,47.28014,-5.09799,-0.90000,0.00000
6.5400,654,240,0,0,0.00928,0.01022,0.02139,0.02611,0.00000,1.07538,0.69850,0.69883,0.05893,0.00000,1.00000,2.00000,47.00087,-5.10589,-1.20000,0.00000
6.5500,655,240,0,0,0.00909,0.01002,0.02046,0.02509,0.00000,1.18962,0.69759,0.70185,0.06460,0.00000,1.00000,2.00000,46.68695,-5.10381,-1.50000,0.00000
6.5600,656,240,0,0,0.00908,0.01014,0.02039,0.02571,0.00000,1.27533,0.69631,0.70131,0.07027,0.00000,1.00000,2.00000,46.32975,-5.10820,-1.80000,0.00000
6.5700,657,240,0,0,0.00956,0.00989,0.02279,0.02446,0.00000,1.33350,0.69699,0.70147,0.07594,0.00000,1.00000,2.00000,45.94215,-5.11006,-2.10000,0.00000
6.5800,658,240,0,0,0.00967,0.00981,0.02337,0.02403,0.00000,1.37781,0.70071,0.70042,0.08161,0.00000,1.00000,2.00000,45.50767,-5.08899,-2.14024,0.00000
6.5900,659,240,0,0,0.01006,0.00980,0.02530,0.02402,0.00000,1.41342,0.70395,0.69757,0.08728,0.00000,1.00000,2.00000,45.03726,-5.07228,-2.15180,0.00000
6.6000,660,240,0,0,0.01076,0.01015,0.02880,0.02576,0.00000,1.43835,0.70014,0.69800,0.09295,0.00000,1.00000,2.00000,44.54825,-5.07375,-2.17283,0.00000
6.6100,661,240,0,0,0.01102,0.01014,0.03012,0.02570,0.00298,1.45442,0.69952,0.69910,0.09862,0.00000,1.00000,2.00000,44.02716,-5.05447,-2.18074,0.00000
6.6200,662,240,0,0,0.01181,0.01011,0.03406,0.02557,0.00138,1.46565,0.69795,0.70046,0.10429,0.00000,1.00000,2.00000,43.46976,-5.03407,-2.20437,0.00000
6.6300,663,240,0,0,0.01240,0.00980,0.03701,0.02399,0.00078,1.47413,0.50849,0.55824,0.10996,0.60540,1.00000,3.00000,42.87123,-4.41332,-2.22204,0.00000
6.6400,664,240,0,0,0.01312,0.00922,0.04060,0.02110,0.00035,1.47957,0.36975,0.42687,0.11563,0.61083,1.00000,3.00000,42.23264,-3.82228,-2.24359,0.00000
6.6500,665,240,0,0,0.01373,0.00880,0.04366,0.01898,0.00000,1.48372,0.26747,0.30773,0.12130,0.61627,1.00000,3.00000,41.56863,-3.24222,-2.26194,0.00000
6.6600,666,240,0,0,0.01460,0.00833,0.04801,0.01666,0.00000,1.48659,0.19436,0.22685,0.12697,0.62170,1.00000,3.00000,40.88768,-2.65549,-2.28804,0.00000
6.6700,667,240,0,0,0.01558,0.00795,0.05290,0.01473,0.00000,1.49139,0.14037,0.16295,0.13264,0.62714,1.00000,3.00000,40.16558,-2.06324,-2.31739,0.00000
6.6800,668,240,0,0,0.01630,0.00732,0.05649,0.01159,0.00262,1.49491,0.10459,0.12068,0.13831,0.63257,1.00000,3.00000,39.41340,-1.46639,-2.33892,0.00000
6.6900,669,240,0,0,0.01719,0.00755,0.06095,0.01276,0.00508,1.49688,0.07685,0.08611,0.14398,0.63801,1.00000,3.00000,38.63150,-0.86919,-2.36569,0.00000
6.7000,670,240,0,0,0.01789,0.00761,0.06444,0.01305,0.02765,1.49666,0.05691,0.06223,0.14964,0.64344,1.00000,3.00000,37.83119,-0.24897,-2.38667,0.00000
6.7100,671,240,0,0,0.01898,0.00751,0.06990,0.01256,0.08238,1.49769,0.03695,0.04622,0.15531,0.64888,1.00000,3.00000,36.99986,0.38795,-2.41941,0.00000
6.7200,672,240,0,0,0.01956,0.00745,0.07279,0.01226,0.15655,1.49607,0.02672,0.03222,0.16098,0.65431,1.00000,3.00000,36.13842,1.02810,-2.43673,0.00000
6.7300,673,240,0,0,0.02036,0.00760,0.07679,0.01299,0.24623,1.49928,0.02283,0.02601,0.16665,0.65974,1.00000,3.00000,35.26681,1.69990,-2.46074,0.00000
6.7400,674,240,0,0,0.02091,0.00720,0.07954,0.01102,0.35096,1.49937,0.01876,0.01902,0.17232,0.66518,1.00000,3.00000,34.36885,2.39635,-2.47721,0.00000
6.7500,675,240,0,0,0.02146,0.00713,0.08231,0.01064,0.46503,1.49879,0.01059,0.01457,0.17799,0.67061,1.00000,3.00000,33.44661,3.09592,-2.49387,0.00000
6.7600,676,240,0,0,0.02230,0.00695,0.08652,0.00977,0.57467,1.49862,0.00717,0.01014,0.18366,0.67605,1.00000,3.00000,32.50873,3.81509,-2.51914,0.00000
6.7700,677,240,0,0,0.02318,0.00747,0.09090,0.01233,0.69696,1.50000,0.00324,0.00845,0.18933,0.68148,1.00000,3.00000,31.54241,4.54041,-2.54538,0.00000
6.7800,678,240,0,0,0.02372,0.00764,0.09361,0.01320,0.81778,1.49918,0.00516,0.00873,0.19500,0.68692,1.00000,3.00000,30.56795,5.27918,-2.56164,0.00000
6.7900,679,240,0,0,0.02419,0.00709,0.09594,0.01047,0.94084,1.49874,0.00415,0.00612,0.20067,0.69235,1.00000,3.00000,29.57054,6.03470,-2.57562,0.00000
6.8000,680,240,0,0,0.02420,0.00685,0.09601,0.00924,1.06851,1.49680,0.00175,0.00729,0.20634,0.69779,1.00000,3.00000,28.56536,6.79615,-2.57607,0.00000
6.8100,681,240,0,0,0.02448,0.00697,0.09742,0.00987,1.18452,1.49743,0.00133,0.00429,0.21201,0.70322,1.00000,3.00000,27.54261,7.57021,-2.58453,0.00000
6.8200,682,240,0,0,0.02461,0.00699,0.09806,0.00997,1.27229,1.49797,0.00000,0.00437,0.21768,0.70865,1.00000,3.00000,26.50062,8.36876,-2.58835,0.00000
6.8300,683,240,0,0,0.02435,0.00682,0.09675,0.00911,1.33463,1.49900,0.00000,0.00398,0.22335,0.71409,1.00000,3.00000,25.45494,9.17551,-2.58051,0.00000
6.8400,684,240,0,0,0.02419,0.00742,0.09593,0.01209,1.37855,1.49783,0.00000,0.00113,0.22902,0.71952,1.00000,3.00000,24.40247,9.97647,-2.57558,0.00000
6.8500,685,240,0,0,0.02389,0.00750,0.09443,0.01249,1.41377,1.49873,0.00000,0.00117,0.23469,0.72496,1.00000,3.00000,23.33519,10.79841,-2.56660,0.00000
6.8600,686,240,0,0,0.02359,0.00760,0.09297,0.01300,1.43576,1.49759,0.00000,0.00086,0.24036,0.73039,1.00000,3.00000,22.26669,11.62033,-2.55782,0.00000
6.8700,687,240,0,0,0.02265,0.00743,0.08826,0.01213,1.45332,1.50000,0.00000,0.00000,0.24602,0.73583,1.00000,3.00000,21.18167,12.45133,-2.52956,0.00000
6.8800,688,240,0,0,0.02187,0.00762,0.08437,0.01311,1.46604,1.50000,0.00000,0.00003,0.25169,0.74126,1.00000,3.00000,20.09891,13.28795,-2.50623,0.00000
6.8900,689,240,0,0,0.02117,0.00754,0.08085,0.01269,1.47221,1.49901,0.00000,0.00026,0.25736,0.74669,1.00000,3.00000,19.01963,14.13136,-2.48509,0.00000
6.9000,690,240,0,0,0.02054,0.00752,0.07769,0.01260,1.47940,1.49640,0.00000,0.00007,0.26303,0.75213,1.00000,3.00000,17.93018,14.97194,-2.46617,0.00000
6.9100,691,240,0,0,0.01986,0.00773,0.07429,0.01364,1.48242,1.49595,0.00000,0.00000,0.26870,0.75756,1.00000,3.00000,16.84260,15.82262,-2.44573,0.00000
6.9200,692,240,0,0,0.01891,0.00742,0.06956,0.01210,1.48634,1.49607,0.00196,0.00000,0.27437,0.76300,1.00000,3.00000,15.76174,16.66696,-2.41737,0.00000
6.9300,693,240,0,0,0.01793,0.00794,0.06465,0.01472,1.49166,1.49631,0.00105,0.00000,0.28004,0.76843,1.00000,3.00000,14.67171,17.51381,-2.38788,0.00000
6.9400,694,240,0,0,0.01730,0.00806,0.06148,0.01532,1.49262,1.49860,0.00048,0.00000,0.28571,0.77387,1.00000,3.00000,13.57838,18.35185,-2.36886,0.00000
6.9500,695,240,0,0,0.01653,0.00845,0.05766,0.01725,1.49231,1.49955,0.00175,0.00000,0.29138,0.77930,1.00000,3.00000,12.49897,19.20666,-2.34594,0.00000
6.9600,696,240,0,0,0.01531,0.00828,0.05154,0.01642,1.49370,1.49946,0.00000,0.00343,0.29705,0.78474,1.00000,3.00000,11.42385,20.04658,-2.30921,0.00000
6.9700,697,240,0,0,0.01461,0.00828,0.04805,0.01640,1.49828,1.50000,0.00000,0.00018,0.30272,0.79017,1.00000,3.00000,10.36052,20.88452,-2.28829,0.00000
6.9800,698,240,0,0,0.01401,0.00832,0.04504,0.01658,1.50000,1.50000,0.00000,0.00000,0.30839,0.79560,1.00000,3.00000,9.30471,21.70501,-2.27023,0.00000
6.9900,699,240,0,0,0.01384,0.00876,0.04418,0.01879,1.50000,1.50000,0.00000,0.00000,0.31406,0.80104,1.00000,3.00000,8.26000,22.52758,-2.26510,0.00000
7.0000,700,240,0,0,0.01314,0.00916,0.04068,0.02078,1.50000,1.50000,0.00044,0.00231,0.31973,0.80647,1.00000,3.00000,7.22865,23.35614,-2.24408,0.00000
7.0100,701,240,0,0,0.01256,0.00946,0.03778,0.02229,1.50000,1.50000,0.00123,0.00000,0.32540,0.81191,1.00000,3.00000,6.21986,24.16979,-2.22670,0.00000
7.0200,702,240,0,0,0.01174,0.00969,0.03368,0.02347,1.50000,1.50000,0.00000,0.00034,0.33107,0.81734,1.00000,3.00000,5.21483,24.96276,-2.20209,0.00000
7.0300,703,240,0,0,0.01113,0.00996,0.03067,0.02478,1.50000,1.50000,0.00000,0.00066,0.33674,0.82278,1.00000,3.00000,4.21936,25.76564,-1.90209,0.00000
7.0400,704,240,0,0,0.01056,0.01056,0.02780,0.02782,1.50000,1.50000,0.00243,0.00103,0.34241,0.82821,1.00000,3.00000,3.25492,26.54740,-1.60209,0.00000
7.0500,705,240,0,0,0.01015,0.01106,0.02573,0.03032,1.50000,1.50000,0.00040,0.00278,0.34807,0.83365,1.00000,3.00000,2.30770,27.32942,-1.30209,0.00000
7.0600,706,240,0,0,0.00977,0.01153,0.02387,0.03265,1.49927,1.50000,0.00053,0.00401,0.35374,0.83908,1.00000,3.00000,1.36991,28.08872,-1.00209,0.00000
7.0700,707,240,0,0,0.00928,0.01250,0.02142,0.03750,1.49847,1.50000,0.00007,0.00217,0.35941,0.84451,1.00000,3.00000,0.44992,28.83712,-0.70209,0.00000
7.0800,708,240,0,0,0.00904,0.01298,0.02019,0.03990,1.49932,1.49840,0.00000,0.00190,0.36508,0.84995,1.00000,3.00000,-0.43457,29.57687,-0.40209,0.00000
7.0900,709,240,0,0,0.00858,0.01374,0.01791,0.04372,1.50000,1.49795,0.00000,0.00000,0.37075,0.85538,1.00000,3.00000,-1.30392,30.28896,-0.10209,0.30000
7.1000,710,240,0,0,0.00841,0.01400,0.01707,0.04501,1.50000,1.50000,0.00034,0.00000,0.37642,0.86082,1.00000,3.00000,-2.14746,30.98693,0.00000,0.60000
7.1100,711,240,0,0,0.00820,0.01444,0.01598,0.04720,1.50000,1.50000,0.00000,0.00000,0.38209,0.86625,1.00000,3.00000,-2.97108,31.67441,0.00000,0.90000
7.1200,712,240,0,0,0.00781,0.01475,0.01405,0.04873,1.50000,1.49715,0.00094,0.00000,0.38776,0.87169,1.00000,3.00000,-3.77407,32.35021,0.00000,1.00000
7.1300,713,240,0,0,0.00783,0.01464,0.01414,0.04819,1.50000,1.49971,0.00000,0.00000,0.39343,0.87712,1.00000,3.00000,-4.53267,32.99461,0.00000,1.00000
7.1400,714,240,0,0,0.00789,0.01524,0.01447,0.05122,1.50000,1.49700,0.00000,0.00000,0.39910,0.88256,1.00000,3.00000,-5.27547,33.62045,0.00000,1.00000
7.1500,715,240,0,0,0.00766,0.01531,0.01332,0.05157,1.50000,1.49739,0.00107,0.00000,0.40477,0.88799,1.00000,3.00000,-5.98558,34.24244,0.00000,1.00000
7.1600,716,240,0,0,0.00767,0.01551,0.01334,0.05254,1.50000,1.49871,0.00241,0.00000,0.41044,0.89342,1.00000,3.00000,-6.67804,34.83410,0.00000,1.00000
7.1700,717,240,0,0,0.00759,0.01524,0.01296,0.05121,1.50000,1.49896,0.00209,0.00000,0.41611,0.89886,1.00000,3.00000,-7.32943,35.40645,0.00000,1.00000
7.1800,718,240,0,0,0.00714,0.01508,0.01069,0.05039,1.50000,1.50000,0.00277,0.00000,0.42178,0.90429,2.00000,3.00000,-7.94826,35.94922,0.00000,1.00000
7.1900,719,240,0,0,0.00717,0.01469,0.01084,0.04844,1.50000,1.49494,0.00154,0.00000,0.42745,0.90973,2.00000,3.00000,-8.52922,36.47839,0.00000,1.00000
7.2000,720,240,0,0,0.00705,0.01473,0.01026,0.04867,1.50000,1.49576,0.00110,0.00000,0.43312,0.91516,2.00000,3.00000,-9.07743,36.98822,0.00000,1.00000
7.2100,721,240,0,0,0.00714,0.01442,0.01069,0.04710,1.50000,1.49608,0.00000,0.00189,0.43879,0.92060,2.00000,3.00000,-9.60119,37.47860,0.00000,1.00000
7.2200,722,240,0,0,0.00712,0.01406,0.01060,0.04529,1.49848,1.49790,0.00128,0.00393,0.44446,0.92603,2.00000,3.00000,-10.09739,37.93342,0.00000,1.00000
7.2300,723,240,0,0,0.00682,0.01386,0.00908,0.04429,1.49764,1.49817,0.00000,0.00159,0.45012,0.93146,2.00000,3.00000,-10.54187,38.37791,0.00000,1.00000
7.2400,724,240,0,0,0.00693,0.01352,0.00963,0.04260,1.49509,1.49798,0.00229,0.00362,0.45579,0.93690,2.00000,3.00000,-10.95551,38.78155,0.00000,1.00000
7.2500,725,240,0,0,0.00679,0.01304,0.00895,0.04022,1.49774,1.50000,0.00114,0.00022,0.46146,0.94233,2.00000,3.00000,-11.32553,39.16101,0.00000,1.00000
7.2600,726,240,0,0,0.00689,0.01208,0.00946,0.03539,1.50000,1.50000,0.00086,0.00138,0.46713,0.94777,2.00000,3.00000,-11.67114,39.52763,0.00000,1.00000
7.2700,727,240,0,0,0.00700,0.01141,0.00998,0.03204,1.49822,1.50000,0.00187,0.00019,0.47280,0.95320,2.00000,3.00000,-11.96825,39.85796,0.00000,1.00000
7.2800,728,240,0,0,0.00703,0.01074,0.01015,0.02868,1.49909,1.50000,0.00140,0.00000,0.47847,0.95864,2.00000,3.00000,-12.24205,40.15740,0.00000,1.00000
7.2900,729,240,0,0,0.00730,0.01052,0.01152,0.02760,1.49669,1.50000,0.00053,0.00000,0.48414,0.96407,2.00000,3.00000,-12.47419,40.43308,0.00000,1.00000
7.3000,730,240,0,0,0.00727,0.01015,0.01134,0.02574,1.47269,1.49884,0.00033,0.00155,0.48981,0.96951,2.00000,3.00000,-12.66388,40.68983,0.00000,1.00000
7.3100,731,240,0,0,0.00737,0.00945,0.01187,0.02226,1.42134,1.50000,0.00171,0.00263,0.49548,0.97494,2.00000,3.00000,-12.81464,40.91737,0.00000,1.00000
7.3200,732,240,0,0,0.00758,0.00914,0.01292,0.02070,1.34907,1.50000,0.00015,0.00226,0.50115,0.98037,2.00000,3.00000,-12.92210,41.10273,0.00000,1.00000
7.3300,733,240,0,0,0.00773,0.00857,0.01365,0.01784,1.25779,1.50000,0.00000,0.00186,0.50682,0.98581,2.00000,3.00000,-12.99698,41.26630,0.00000,1.00000
7.3400,734,240,0,0,0.00799,0.00842,0.01496,0.01710,1.15859,1.50000,0.00000,0.00222,0.51249,0.99124,2.00000,3.00000,-13.04444,41.40260,0.00000,1.00000
7.3500,735,240,0,0,0.00796,0.00792,0.01479,0.01460,1.04809,1.50000,0.00138,0.00211,0.51816,0.99668,2.00000,3.00000,-13.03027,41.50454,0.00000,1.00000
7.3600,736,240,0,0,0.00744,0.00803,0.01219,0.01514,0.93435,1.50000,0.00084,0.00242,0.52383,0.00220,2.00000,0.00000,-12.99593,41.58445,0.00000,0.70000
7.3700,737,240,0,0,0.00736,0.00811,0.01180,0.01556,0.81393,1.49851,0.00358,0.00209,0.52950,0.00787,2.00000,0.00000,-12.91416,41.63460,0.00000,0.40000
7.3800,738,240,0,0,0.00701,0.00855,0.01004,0.01776,0.69005,1.49652,0.00234,0.00290,0.53517,0.01354,2.00000,0.00000,-12.79729,41.65980,0.00000,0.10000
7.3900,739,240,0,0,0.00725,0.00870,0.01127,0.01848,0.56457,1.49437,0.00131,0.00000,0.54084,0.01921,2.00000,0.00000,-12.64554,41.65181,0.00000,0.00000
7.4000,740,240,0,0,0.00736,0.00859,0.01180,0.01793,0.43797,1.49677,0.00067,0.02123,0.54651,0.02488,2.00000,0.00000,-12.44978,41.60177,0.00000,0.00000
7.4100,741,240,0,0,0.00708,0.00886,0.01038,0.01929,0.31783,1.49772,0.00000,0.08544,0.55217,0.03055,2.00000,0.00000,-12.22144,41.52110,0.00000,0.00000
7.4200,742,240,0,0,0.00702,0.00866,0.01011,0.01831,0.23117,1.49607,0.00000,0.18524,0.55784,0.03622,2.00000,0.00000,-11.96045,41.41330,0.00000,0.00000
7.4300,743,240,0,0,0.00729,0.00872,0.01147,0.01860,0.16940,1.49991,0.00000,0.31039,0.56351,0.04189,2.00000,0.00000,-11.66875,41.26514,0.00000,0.00000
7.4400,744,240,0,0,0.00740,0.00917,0.01199,0.02083,0.12216,1.49992,0.00000,0.44824,0.56918,0.04756,2.00000,0.00000,-11.33214,41.09201,0.00000,-0.30000
7.4500,745,240,0,0,0.00731,0.00908,0.01155,0.02041,0.08860,1.50000,0.00000,0.59978,0.57485,0.05323,2.00000,1.00000,-10.95973,40.88179,0.00000,-0.60000
7.4600,746,240,0,0,0.00697,0.00964,0.00986,0.02319,0.06384,1.50000,0.00000,0.76129,0.58052,0.05890,2.00000,1.00000,-10.54775,40.63478,0.00000,-0.90000
7.4700,747,240,0,0,0.00722,0.01000,0.01112,0.02498,0.04432,1.50000,0.00129,0.92439,0.58619,0.06457,2.00000,1.00000,-10.10532,40.35732,0.00000,-1.20000
7.4800,748,240,0,0,0.00732,0.01069,0.01158,0.02843,0.03391,1.50000,0.00349,1.08112,0.59186,0.07024,2.00000,1.00000,-9.62979,40.06237,0.00000,-1.50000
7.4900,749,240,0,0,0.00717,0.01112,0.01085,0.03062,0.02631,1.49814,0.00459,1.19640,0.59753,0.07591,2.00000,1.00000,-9.12476,39.72440,0.00000,-1.80000
7.5000,750,240,0,0,0.00691,0.01198,0.00955,0.03491,0.02046,1.49684,0.00193,1.27476,0.60320,0.08158,3.00000,1.00000,-8.58177,39.36560,0.00000,-2.10000
7.5100,751,240,0,0,0.00682,0.01274,0.00911,0.03868,0.01256,1.49854,0.00059,1.33482,0.60887,0.08724,3.00000,1.00000,-7.99696,38.96199,0.00000,-2.23206
7.5200,752,240,0,0,0.00759,0.01381,0.01295,0.04405,0.00373,1.49841,0.00341,1.38185,0.61454,0.09291,3.00000,1.00000,-7.40161,38.53415,0.00000,-2.26429
7.5300,753,240,0,0,0.00765,0.01451,0.01323,0.04756,0.00414,1.49657,0.00287,1.41585,0.62021,0.09858,3.00000,1.00000,-6.75463,38.08810,0.00000,-2.28538
7.5400,754,240,0,0,0.00731,0.01508,0.01156,0.05040,0.00470,1.49245,0.00165,1.43950,0.62588,0.10425,3.00000,1.00000,-6.07600,37.59090,0.00000,-2.30238
7.5500,755,240,0,0,0.00720,0.01583,0.01101,0.05413,0.00377,1.46541,0.00238,1.45751,0.63155,0.10992,3.00000,1.00000,-5.37409,37.06352,0.00000,-2.32478
7.5600,756,240,0,0,0.00710,0.01634,0.01051,0.05669,0.00221,1.42268,0.00338,1.46950,0.63722,0.11559,3.00000,1.00000,-4.64838,36.52914,0.00000,-2.34013
7.5700,757,240,0,0,0.00747,0.01729,0.01237,0.06144,0.00222,1.36225,0.00152,1.47876,0.64289,0.12126,3.00000,1.00000,-3.89924,35.95375,0.00000,-2.36861
7.5800,758,240,0,0,0.00751,0.01819,0.01253,0.06596,0.00028,1.29536,0.00146,1.48406,0.64856,0.12693,3.00000,1.00000,-3.11483,35.35787,0.00000,-2.39575
7.5900,759,240,0,0,0.00732,0.01941,0.01161,0.07205,0.00057,1.22011,0.00258,1.48861,0.65422,0.13260,3.00000,1.00000,-2.30255,34.73316,0.00000,-2.43231
7.6000,760,240,0,0,0.00732,0.01974,0.01162,0.07371,0.00000,1.14195,0.00000,1.49069,0.65989,0.13827,3.00000,1.00000,-1.47975,34.08907,0.00000,-2.44223
7.6100,761,240,0,0,0.00709,0.02015,0.01047,0.07575,0.00000,1.05888,0.00081,1.49532,0.66556,0.14394,3.00000,1.00000,-0.62438,33.41357,0.00000,-2.45449
7.6200,762,240,0,0,0.00758,0.02044,0.01291,0.07718,0.00000,0.97193,0.03281,1.49910,0.67123,0.14961,3.00000,1.00000,0.24693,32.72046,0.00000,-2.46309
7.6300,763,240,0,0,0.00762,0.02084,0.01311,0.07919,0.00000,0.88272,0.08949,1.50000,0.67690,0.15528,3.00000,1.00000,1.14111,32.00832,0.00000,-2.47517
7.6400,764,240,0,0,0.00758,0.02115,0.01291,0.08077,0.00000,0.79105,0.16459,1.50000,0.68257,0.16095,3.00000,1.00000,2.06059,31.26576,0.00000,-2.48464
7.6500,765,240,0,0,0.00754,0.02124,0.01268,0.08120,0.00000,0.70081,0.25406,1.49880,0.68824,0.16662,3.00000,1.00000,2.99973,30.50587,0.00000,-2.48717
7.6600,766,240,0,0,0.00743,0.02147,0.01214,0.08233,0.00000,0.60827,0.35097,1.50000,0.69391,0.17229,3.00000,1.00000,3.96224,29.72901,0.00000,-2.49399
7.6700,767,240,0,0,0.00715,0.02114,0.01073,0.08071,0.00198,0.51636,0.45404,1.50000,0.69958,0.17796,3.00000,1.00000,4.93171,28.92765,0.00000,-2.48428
7.6800,768,240,0,0,0.00711,0.02111,0.01053,0.08057,0.00350,0.42353,0.56327,1.50000,0.70525,0.18363,3.00000,1.00000,5.91019,28.11587,0.00000,-2.48344
7.6900,769,240,0,0,0.00752,0.02083,0.01261,0.07913,0.00000,0.33003,0.67387,1.50000,0.71092,0.18929,3.00000,1.00000,6.90972,27.29024,0.00000,-2.47479
7.7000,770,240,0,0,0.00742,0.02031,0.01211,0.07653,0.00000,0.23787,0.79001,1.50000,0.71659,0.19496,3.00000,1.00000,7.92230,26.44532,0.00000,-2.45918
7.7100,771,240,0,0,0.00770,0.01965,0.01352,0.07327,0.00070,0.17349,0.90874,1.49888,0.72226,0.20063,3.00000,1.00000,8.95065,25.58679,0.00000,-2.43964
7.7200,772,240,0,0,0.00755,0.01956,0.01274,0.07282,0.00002,0.12676,1.02622,1.50000,0.72793,0.20630,3.00000,1.00000,9.97025,24.71622,0.00000,-2.43692
7.7300,773,240,0,0,0.00753,0.01856,0.01267,0.06781,0.00000,0.09139,1.14456,1.50000,0.73360,0.21197,3.00000,1.00000,11.01522,23.82956,0.00000,-2.40686
7.7400,774,240,0,0,0.00722,0.01785,0.01110,0.06425,0.00000,0.06287,1.24249,1.50000,0.73927,0.21764,3.00000,1.00000,12.06334,22.93987,0.00000,-2.38552
7.7500,775,240,0,0,0.00706,0.01688,0.01028,0.05939,0.00000,0.04389,1.30966,1.50000,0.74494,0.22331,3.00000,1.00000,13.11139,22.04283,0.00000,-2.35636
7.7600,776,240,0,0,0.00724,0.01651,0.01118,0.05754,0.00000,0.03246,1.36265,1.50000,0.75061,0.22898,3.00000,1.00000,14.18131,21.12442,0.00000,-2.34523
7.7700,777,240,0,0,0.00759,0.01583,0.01294,0.05415,0.00096,0.02403,1.40535,1.50000,0.75627,0.23465,3.00000,1.00000,15.23254,20.20487,0.00000,-2.32488
7.7800,778,240,0,0,0.00775,0.01479,0.01373,0.04897,0.00000,0.01692,1.43106,1.50000,0.76194,0.24032,3.00000,1.00000,16.29996,19.27445,0.00000,-2.29381
7.7900,779,240,0,0,0.00748,0.01412,0.01242,0.04558,0.00000,0.00977,1.44974,1.50000,0.76761,0.24599,3.00000,1.00000,17.36581,18.34284,0.00000,-2.27347
7.8000,780,240,0,0,0.00745,0.01340,0.01226,0.04198,0.00000,0.00765,1.46472,1.50000,0.77328,0.25166,3.00000,1.00000,18.43066,17.41340,0.00000,-2.25185
7.8100,781,240,0,0,0.00755,0.01255,0.01274,0.03773,0.00000,0.00487,1.47708,1.50000,0.77895,0.25733,3.00000,1.00000,19.49164,16.47328,0.00000,-2.22637
7.8200,782,240,0,0,0.00815,0.01207,0.01574,0.03534,0.00130,0.00623,1.48496,1.50000,0.78462,0.26300,3.00000,1.00000,20.56600,15.51910,0.00000,-2.21203
7.8300,783,240,0,0,0.00862,0.01152,0.01809,0.03258,0.00122,0.00156,1.48554,1.50000,0.79029,0.26867,3.00000,1.00000,21.61208,14.58018,0.00000,-2.19545
7.8400,784,240,0,0,0.00849,0.01097,0.01747,0.02983,0.00000,0.00151,1.49042,1.50000,0.79596,0.27434,3.00000,1.00000,22.65439,13.64548,0.00000,-2.17900
7.8500,785,240,0,0,0.00891,0.01042,0.01954,0.02709,0.00000,0.00000,1.49727,1.50000,0.80163,0.28001,3.00000,1.00000,23.69345,12.70302,0.00000,-2.16252
7.8600,786,240,0,0,0.00897,0.01004,0.01986,0.02521,0.00000,0.00000,1.49904,1.50000,0.80730,0.28568,3.00000,1.00000,24.73575,11.77129,0.00000,-2.15123
7.8700,787,240,0,0,0.00981,0.00966,0.02404,0.02328,0.00000,0.00000,1.49167,1.49997,0.81297,0.29134,3.00000,1.00000,25.75601,10.83351,0.00000,-2.13965
7.8800,788,240,0,0,0.01046,0.00928,0.02731,0.02140,0.00000,0.00000,1.48104,1.49966,0.81864,0.29701,3.00000,1.00000,26.77370,9.89859,0.00000,-2.12840
7.8900,789,240,0,0,0.01056,0.00881,0.02780,0.01903,0.00000,0.00000,1.46311,1.49964,0.82431,0.30268,3.00000,1.00000,27.76658,8.98169,0.00000,-2.11420
7.9000,790,240,0,0,0.01137,0.00894,0.03183,0.01968,0.00049,0.00150,1.44659,1.50000,0.82998,0.30835,3.00000,1.00000,28.76006,8.06160,0.00000,-2.11805
7.9100,791,240,0,0,0.01156,0.00840,0.03278,0.01698,0.00000,0.00177,1.42336,1.50000,0.83565,0.31402,3.00000,1.00000,29.72367,7.16118,0.00000,-2.10187
7.9200,792,240,0,0,0.01227,0.00830,0.03633,0.01651,0.00000,0.00277,1.40054,1.50000,0.84132,0.31969,3.00000,1.00000,30.67187,6.27874,0.30000,-2.09907
7.9300,793,240,0,0,0.01276,0.00805,0.03880,0.01525,0.00000,0.00489,1.37481,1.50000,0.84699,0.32536,3.00000,1.00000,31.60944,5.38739,0.60000,-2.09151
7.9400,794,240,0,0,0.01311,0.00831,0.04057,0.01654,0.00000,0.00170,1.34899,1.50000,0.85265,0.33103,3.00000,1.00000,32.53504,4.51476,0.90000,-1.79151
7.9500,795,240,0,0,0.01349,0.00790,0.04246,0.01449,0.00000,0.00086,1.32595,1.50000,0.85832,0.33670,3.00000,1.00000,33.42844,3.65812,1.00000,-1.49151
7.9600,796,240,0,0,0.01397,0.00763,0.04485,0.01314,0.00000,0.00000,1.29930,1.50000,0.86399,0.34237,3.00000,1.00000,34.30366,2.82184,1.00000,-1.19151
7.9700,797,240,0,0,0.01474,0.00737,0.04872,0.01187,0.00000,0.00040,1.27123,1.50000,0.86966,0.34804,3.00000,1.00000,35.14417,1.99845,1.00000,-0.89151
7.9800,798,240,0,0,0.01501,0.00747,0.05003,0.01233,0.00000,0.00000,1.24224,1.50000,0.87533,0.35371,3.00000,1.00000,35.97849,1.20107,1.00000,-0.59151
