pc_time_s,seq_id,module_id,status,tx_drops,EMG R env,EMG L env,EMG R act,EMG L act,FSR RH,FSR RT,FSR LH,FSR LT,Phase R,Phase L,Gait R,Gait L,Thigh R,Thigh L,Tau R,Tau L
0.0000,20345,240,0,0,0.001751,0.009501,0.000000,0.000000,1.500000,1.490208,1.409054,1.500000,0.924760,0.965359,1.000000,2.000000,3.427734,-19.841309,0.000000,0.000000
0.0100,20346,240,0,0,0.001765,0.009125,0.000000,0.000000,1.500000,1.490295,1.407964,1.500000,0.927865,0.967858,1.000000,2.000000,3.427734,-19.841309,0.000000,0.000000
0.0200,20347,240,0,0,0.001612,0.009144,0.000000,0.000000,1.500000,1.490768,1.407483,1.500000,0.930971,0.970358,1.000000,2.000000,3.427734,-19.819336,0.000000,0.000000
0.0300,20348,240,0,0,0.001616,0.008995,0.000000,0.000000,1.500000,1.488194,1.406763,1.500000,0.934076,0.972858,1.000000,2.000000,3.449707,-19.819336,0.000000,0.000000
0.0400,20349,240,0,0,0.001610,0.008546,0.000000,0.000000,1.500000,1.488204,1.407637,1.500000,0.937182,0.975358,1.000000,2.000000,3.449707,-19.819336,0.000000,0.000000
0.0500,20350,240,0,0,0.001669,0.007839,0.000000,0.000000,1.500000,1.488193,1.406916,1.500000,0.940287,0.977858,1.000000,2.000000,3.449707,-19.819336,0.000000,0.000000
0.0600,20351,240,0,0,0.001868,0.007394,0.000000,0.000000,1.500000,1.489880,1.407937,1.500000,0.943392,0.980358,1.000000,2.000000,3.449707,-19.819336,0.000000,0.000000
0.0700,20352,240,0,0,0.001629,0.007504,0.000000,0.000000,1.500000,1.489243,1.407108,1.500000,0.946498,0.982857,1.000000,2.000000,3.449707,-19.819336,0.000000,0.000000
0.0800,20353,240,0,0,0.001612,0.007873,0.000000,0.000000,1.500000,1.490057,1.407663,1.500000,0.949603,0.985357,1.000000,2.000000,3.449707,-19.819336,0.000000,0.000000
0.0900,20354,240,0,0,0.001636,0.007733,0.000000,0.000000,1.500000,1.490957,1.408460,1.500000,0.952709,0.987857,1.000000,2.000000,3.449707,-19.819336,0.000000,0.000000
0.1000,20355,240,0,0,0.001543,0.008300,0.000000,0.000000,1.500000,1.491112,1.408722,1.500000,0.955814,0.990357,1.000000,2.000000,3.449707,-19.819336,0.000000,0.000000
0.1100,20356,240,0,0,0.001555,0.008770,0.000000,0.000000,1.500000,1.491553,1.409119,1.500000,0.958919,0.992857,1.000000,2.000000,3.449707,-19.819336,0.000000,0.000000
0.1200,20357,240,0,0,0.001352,0.008594,0.000000,0.000000,1.500000,1.493130,1.408667,1.500000,0.962025,0.995357,1.000000,2.000000,3.471680,-19.819336,0.000000,0.000000
0.1300,20358,240,0,0,0.001278,0.008511,0.000000,0.000000,1.500000,1.493995,1.409779,1.500000,0.965130,0.997856,1.000000,2.000000,3.471680,-19.819336,0.000000,0.000000
0.1400,20359,240,0,0,0.001273,0.008526,0.000000,0.000000,1.500000,1.494188,1.409203,1.500000,0.968236,0.000356,1.000000,2.000000,3.471680,-19.819336,0.000000,0.000000
0.1500,20360,240,0,0,0.001287,0.008548,0.000000,0.000000,1.500000,1.493152,1.408298,1.500000,0.971341,0.002856,1.000000,2.000000,3.471680,-19.819336,0.000000,0.000000
0.1600,20361,240,0,0,0.001316,0.008683,0.000000,0.000000,1.500000,1.493050,1.409377,1.500000,0.974446,0.005356,1.000000,2.000000,3.471680,-19.819336,0.000000,0.000000
0.1700,20362,240,0,0,0.001393,0.009111,0.000000,0.000000,1.500000,1.493274,1.410223,1.500000,0.977552,0.007856,1.000000,2.000000,3.471680,-19.819336,0.000000,0.000000
0.1800,20363,240,0,0,0.001246,0.009589,0.000000,0.000000,1.500000,1.493227,1.411090,1.500000,0.980657,0.010356,1.000000,2.000000,3.471680,-19.819336,0.000000,0.000000
0.1900,20364,240,0,0,0.001341,0.009138,0.000000,0.000000,1.500000,1.492711,1.410510,1.500000,0.983763,0.012856,1.000000,2.000000,3.471680,-19.819336,0.000000,0.000000
0.2000,20365,240,0,0,0.001453,0.009305,0.000000,0.000000,1.500000,1.494758,1.411084,1.500000,0.986868,0.015356,1.000000,2.000000,3.449707,-19.819336,0.000000,0.000000
0.2100,20366,240,0,0,0.001469,0.009492,0.000000,0.000000,1.500000,1.495244,1.410749,1.500000,0.989973,0.017856,1.000000,2.000000,3.449707,-19.819336,0.000000,0.000000
0.2200,20367,240,0,0,0.001410,0.009424,0.000000,0.000000,1.500000,1.493663,1.410260,1.500000,0.993079,0.020356,1.000000,2.000000,3.449707,-19.819336,0.000000,0.000000
0.2300,20368,240,0,0,0.001477,0.009366,0.000000,0.000000,1.500000,1.493709,1.409685,1.500000,0.996184,0.022856,1.000000,2.000000,3.449707,-19.819336,0.000000,0.000000
0.2400,20369,240,0,0,0.001775,0.009386,0.000000,0.000000,1.500000,1.492537,1.410121,1.500000,0.999290,0.025356,1.000000,2.000000,3.449707,-19.819336,0.000000,0.000000
0.2500,20370,240,0,0,0.001819,0.009385,0.000000,0.000000,1.500000,1.494799,1.411055,1.500000,0.002395,0.027856,1.000000,2.000000,3.449707,-19.819336,0.000000,0.000000
0.2600,20371,240,0,0,0.001929,0.009160,0.000000,0.000000,1.500000,1.495957,1.411688,1.500000,0.005501,0.030356,1.000000,2.000000,3.449707,-19.819336,0.000000,0.000000
0.2700,20372,240,0,0,0.001976,0.009104,0.000000,0.000000,1.500000,1.498054,1.412501,1.500000,0.008606,0.032856,1.000000,2.000000,3.449707,-19.819336,0.000000,0.000000
0.2800,20373,240,0,0,0.001803,0.008787,0.000000,0.000000,1.500000,1.498604,1.412083,1.500000,0.011712,0.035356,1.000000,2.000000,3.449707,-19.819336,0.000000,0.000000
0.2900,20374,240,0,0,0.002162,0.008732,0.000000,0.000000,1.500000,1.500000,1.412458,1.500000,0.014818,0.037856,1.000000,2.000000,3.449707,-19.819336,0.000000,0.000000
0.3000,20375,240,0,0,0.001888,0.008864,0.000000,0.000000,1.500000,1.500000,1.411937,1.500000,0.017923,0.040356,1.000000,2.000000,3.449707,-19.819336,0.000000,0.000000
0.3100,20376,240,0,0,0.002046,0.009059,0.000000,0.000000,1.500000,1.500000,1.412676,1.500000,0.021029,0.042856,1.000000,2.000000,3.449707,-19.819336,0.000000,0.000000
0.3200,20377,240,0,0,0.001930,0.009027,0.000000,0.000000,1.500000,1.500000,1.412559,1.500000,0.024134,0.045356,1.000000,2.000000,3.449707,-19.819336,0.000000,0.000000
0.3300,20378,240,0,0,0.001641,0.008587,0.000000,0.000000,1.500000,1.500000,1.412703,1.500000,0.027240,0.047856,1.000000,2.000000,3.449707,-19.819336,0.000000,0.000000
0.3400,20379,240,0,0,0.001719,0.008589,0.000000,0.000000,1.500000,1.500000,1.413785,1.500000,0.030346,0.050356,1.000000,2.000000,3.449707,-19.819336,0.000000,0.000000
0.3500,20380,240,0,0,0.001447,0.008326,0.000000,0.000000,1.500000,1.500000,1.414357,1.500000,0.033451,0.052856,1.000000,2.000000,3.449707,-19.819336,0.000000,0.000000
0.3600,20381,240,0,0,0.001495,0.008300,0.000000,0.000000,1.500000,1.500000,1.414007,1.500000,0.036557,0.055356,1.000000,2.000000,3.449707,-19.819336,0.000000,0.000000
0.3700,20382,240,0,0,0.001488,0.007898,0.000000,0.000000,1.500000,1.500000,1.414416,1.500000,0.039662,0.057856,1.000000,2.000000,3.471680,-19.819336,0.000000,0.000000
0.3800,20383,240,0,0,0.001438,0.008118,0.000000,0.000000,1.500000,1.500000,1.415327,1.500000,0.042768,0.060356,1.000000,2.000000,3.471680,-19.797363,0.000000,0.000000
0.3900,20384,240,0,0,0.001546,0.007791,0.000000,0.000000,1.500000,1.500000,1.415638,1.500000,0.045874,0.062856,1.000000,2.000000,3.471680,-19.797363,0.000000,0.000000
0.4000,20385,240,0,0,0.001760,0.008378,0.000000,0.000000,1.500000,1.500000,1.416160,1.500000,0.048979,0.065356,1.000000,2.000000,3.471680,-19.797363,0.000000,0.000000
0.4100,20387,240,0,0,0.001580,0.008639,0.000000,0.000000,1.500000,1.500000,1.416255,1.500000,0.055190,0.070356,1.000000,2.000000,3.471680,-19.797363,0.000000,0.000000
0.4200,20388,240,0,0,0.001575,0.008393,0.000000,0.000000,1.500000,1.500000,1.415735,1.500000,0.058296,0.072856,1.000000,2.000000,3.471680,-19.797363,0.000000,0.000000
0.4300,20389,240,0,0,0.001443,0.007936,0.000000,0.000000,1.500000,1.500000,1.415098,1.500000,0.061401,0.075356,1.000000,2.000000,3.471680,-19.797363,0.000000,0.000000
0.4400,20390,240,0,0,0.001620,0.008089,0.000000,0.000000,1.500000,1.500000,1.415949,1.500000,0.064507,0.077856,1.000000,2.000000,3.471680,-19.797363,0.000000,0.000000
0.4500,20391,240,0,0,0.001490,0.007835,0.000000,0.000000,1.500000,1.500000,1.416291,1.500000,0.067613,0.080356,1.000000,2.000000,3.471680,-19.797363,0.000000,0.000000
0.4600,20392,240,0,0,0.002141,0.008211,0.000000,0.000000,1.500000,1.500000,1.415060,1.500000,0.070718,0.082856,1.000000,2.000000,3.471680,-19.797363,0.000000,0.000000
0.4700,20393,240,0,0,0.002499,0.008364,0.000000,0.000000,1.500000,1.500000,1.415482,1.500000,0.073824,0.085356,1.000000,2.000000,3.471680,-19.797363,0.000000,0.000000
0.4800,20394,240,0,0,0.002465,0.008566,0.000000,0.000000,1.500000,1.500000,1.416343,1.500000,0.076930,0.087856,1.000000,2.000000,3.471680,-19.797363,0.000000,0.000000
0.4900,20395,240,0,0,0.002903,0.008946,0.000000,0.000000,1.500000,1.500000,1.417155,1.500000,0.080035,0.090356,1.000000,2.000000,3.471680,-19.797363,0.000000,0.000000
0.5000,20396,240,0,0,0.002671,0.009095,0.000000,0.000000,1.500000,1.500000,1.415365,1.500000,0.083141,0.092856,1.000000,2.000000,3.471680,-19.797363,0.000000,0.000000
0.5100,20397,240,0,0,0.002364,0.009653,0.000000,0.000000,1.500000,1.500000,1.416438,1.500000,0.086246,0.095356,1.000000,2.000000,3.471680,-19.797363,0.000000,0.000000
0.5200,20398,240,0,0,0.002188,0.009486,0.000000,0.000000,1.500000,1.500000,1.415259,1.500000,0.089352,0.097856,1.000000,2.000000,3.471680,-19.797363,0.000000,0.000000
0.5300,20399,240,0,0,0.002149,0.009756,0.000000,0.000000,1.500000,1.500000,1.415340,1.500000,0.092458,0.100356,1.000000,2.000000,3.471680,-19.797363,0.000000,0.000000
0.5400,20400,240,0,0,0.002094,0.009830,0.000000,0.000000,1.500000,1.500000,1.414973,1.500000,0.095563,0.102856,1.000000,2.000000,3.471680,-19.797363,0.000000,0.000000
0.5500,20401,240,0,0,0.002025,0.009818,0.000000,0.000000,1.500000,1.500000,1.415114,1.500000,0.098669,0.105356,1.000000,2.000000,3.471680,-19.775391,0.000000,0.000000
0.5600,20402,240,0,0,0.001898,0.009917,0.000000,0.000000,1.500000,1.500000,1.414602,1.500000,0.101775,0.107856,1.000000,2.000000,3.471680,-19.775391,0.000000,0.000000
0.5700,20403,240,0,0,0.001923,0.010159,0.000000,0.000000,1.500000,1.500000,1.415439,1.500000,0.104880,0.110356,1.000000,2.000000,3.471680,-19.775391,0.000000,0.000000
0.5800,20404,240,0,0,0.001881,0.009597,0.000000,0.000000,1.500000,1.500000,1.415890,1.500000,0.107986,0.112856,1.000000,2.000000,3.471680,-19.775391,0.000000,0.000000
0.5900,20405,240,0,0,0.001696,0.009868,0.000000,0.000000,1.500000,1.500000,1.415964,1.500000,0.111091,0.115356,1.000000,2.000000,3.471680,-19.775391,0.000000,0.000000
0.6000,20406,240,0,0,0.001702,0.009913,0.000000,0.000000,1.500000,1.500000,1.415964,1.500000,0.114197,0.117856,1.000000,2.000000,3.471680,-19.775391,0.000000,0.000000
0.6100,20407,240,0,0,0.001691,0.009999,0.000000,0.000000,1.500000,1.500000,1.415720,1.500000,0.117303,0.120356,1.000000,2.000000,3.471680,-19.775391,0.000000,0.000000
0.6200,20408,240,0,0,0.001630,0.010005,0.000000,0.000000,1.500000,1.500000,1.415967,1.500000,0.120408,0.122856,1.000000,2.000000,3.471680,-19.775391,0.000000,0.000000
0.6300,20409,240,0,0,0.001610,0.009375,0.000000,0.000000,1.500000,1.500000,1.415063,1.500000,0.123514,0.125355,1.000000,2.000000,3.471680,-19.775391,0.000000,0.000000
0.6400,20410,240,0,0,0.001514,0.008838,0.000000,0.000000,1.500000,1.500000,1.414702,1.500000,0.126620,0.127855,1.000000,2.000000,3.471680,-19.797363,0.000000,0.000000
0.6500,20411,240,0,0,0.001563,0.009182,0.000000,0.000000,1.500000,1.500000,1.415111,1.500000,0.129725,0.130355,1.000000,2.000000,3.471680,-19.797363,0.000000,0.000000
0.6600,20412,240,0,0,0.001477,0.009490,0.000000,0.000000,1.500000,1.500000,1.416226,1.500000,0.132831,0.132855,1.000000,2.000000,3.471680,-19.797363,0.000000,0.000000
0.6700,20413,240,0,0,0.001363,0.008935,0.000000,0.000000,1.500000,1.500000,1.415391,1.500000,0.135936,0.135355,1.000000,2.000000,3.471680,-19.797363,0.000000,0.000000
0.6800,20414,240,0,0,0.001409,0.008627,0.000000,0.000000,1.500000,1.500000,1.415502,1.500000,0.139042,0.137855,1.000000,2.000000,3.471680,-19.797363,0.000000,0.000000
0.6900,20415,240,0,0,0.001436,0.008627,0.000000,0.000000,1.500000,1.500000,1.414793,1.500000,0.142147,0.140355,1.000000,2.000000,3.471680,-19.797363,0.000000,0.000000
0.7000,20416,240,0,0,0.001733,0.009295,0.000000,0.000000,1.500000,1.500000,1.416146,1.500000,0.145253,0.142855,1.000000,2.000000,3.471680,-19.797363,0.000000,0.000000
0.7100,20417,240,0,0,0.001445,0.009086,0.000000,0.000000,1.500000,1.500000,1.415840,1.500000,0.148358,0.145355,1.000000,2.000000,3.449707,-19.797363,0.000000,0.000000
0.7200,20418,240,0,0,0.001853,0.009240,0.000000,0.000000,1.500000,1.500000,1.415581,1.500000,0.151464,0.147855,1.000000,2.000000,3.449707,-19.797363,0.000000,0.000000
0.7300,20419,240,0,0,0.001946,0.009027,0.000000,0.000000,1.500000,1.500000,1.415340,1.500000,0.154570,0.150355,1.000000,2.000000,3.449707,-19.797363,0.000000,0.000000
0.7400,20420,240,0,0,0.001821,0.008896,0.000000,0.000000,1.500000,1.500000,1.416091,1.500000,0.157675,0.152855,1.000000,2.000000,3.449707,-19.797363,0.000000,0.000000
0.7500,20421,240,0,0,0.001753,0.009412,0.000000,0.000000,1.500000,1.500000,1.414855,1.500000,0.160781,0.155355,1.000000,2.000000,3.449707,-19.797363,0.000000,0.000000
0.7600,20422,240,0,0,0.001866,0.010131,0.000000,0.000000,1.500000,1.500000,1.414895,1.500000,0.163886,0.157855,1.000000,2.000000,3.449707,-19.797363,0.000000,0.000000
0.7700,20423,240,0,0,0.001745,0.010442,0.000000,0.000000,1.500000,1.500000,1.413704,1.500000,0.166992,0.160355,1.000000,2.000000,3.449707,-19.797363,0.000000,0.000000
0.7800,20424,240,0,0,0.001678,0.010609,0.000000,0.000000,1.500000,1.500000,1.413970,1.500000,0.170097,0.162855,1.000000,2.000000,3.449707,-19.797363,0.000000,0.000000
0.7900,20425,240,0,0,0.001575,0.010503,0.000000,0.000000,1.500000,1.500000,1.413960,1.500000,0.173203,0.165355,1.000000,2.000000,3.449707,-19.797363,0.000000,0.000000
0.8000,20426,240,0,0,0.001455,0.010388,0.000000,0.000000,1.500000,1.500000,1.415090,1.500000,0.176308,0.167855,1.000000,2.000000,3.449707,-19.797363,0.000000,0.000000
0.8100,20427,240,0,0,0.001464,0.010724,0.000000,0.000000,1.500000,1.500000,1.414173,1.500000,0.179414,0.170355,1.000000,2.000000,3.449707,-19.797363,0.000000,0.000000
0.8200,20428,240,0,0,0.001414,0.010492,0.000000,0.000000,1.500000,1.500000,1.413331,1.500000,0.182519,0.172855,1.000000,2.000000,3.471680,-19.797363,0.000000,0.000000
0.8300,20429,240,0,0,0.001465,0.010010,0.000000,0.000000,1.500000,1.500000,1.413873,1.500000,0.185625,0.175355,1.000000,2.000000,3.471680,-19.797363,0.000000,0.000000
0.8400,20430,240,0,0,0.001566,0.010363,0.000000,0.000000,1.500000,1.500000,1.413057,1.500000,0.188731,0.177855,1.000000,2.000000,3.471680,-19.797363,0.000000,0.000000
0.8500,20431,240,0,0,0.001653,0.010646,0.000000,0.000000,1.500000,1.500000,1.412728,1.500000,0.191836,0.180355,1.000000,2.000000,3.471680,-19.797363,0.000000,0.000000
0.8600,20432,240,0,0,0.001742,0.010271,0.000000,0.000000,1.500000,1.500000,1.409896,1.500000,0.194942,0.182855,1.000000,2.000000,3.471680,-19.797363,0.000000,0.000000
0.8700,20433,240,0,0,0.001729,0.010128,0.000000,0.000000,1.500000,1.500000,1.409779,1.500000,0.198047,0.185355,1.000000,2.000000,3.471680,-19.797363,0.000000,0.000000
0.8800,20434,240,0,0,0.001575,0.009795,0.000000,0.000000,1.500000,1.500000,1.409277,1.500000,0.201153,0.187855,1.000000,2.000000,3.471680,-19.797363,0.000000,0.000000
0.8900,20435,240,0,0,0.001419,0.009911,0.000000,0.000000,1.500000,1.500000,1.410429,1.500000,0.204258,0.190355,1.000000,2.000000,3.471680,-19.797363,0.000000,0.000000
0.9000,20437,240,0,0,0.001490,0.009274,0.000000,0.000000,1.500000,1.500000,1.408976,1.500000,0.210469,0.195355,1.000000,2.000000,3.471680,-19.797363,0.000000,0.000000
0.9100,20438,240,0,0,0.001529,0.009881,0.000000,0.000000,1.500000,1.500000,1.407746,1.500000,0.213575,0.197855,1.000000,2.000000,3.471680,-19.797363,0.000000,0.000000
0.9200,20439,240,0,0,0.001340,0.009545,0.000000,0.000000,1.500000,1.500000,1.407133,1.500000,0.216681,0.200355,1.000000,2.000000,3.471680,-19.797363,0.000000,0.000000
0.9300,20440,240,0,0,0.001328,0.009787,0.000000,0.000000,1.500000,1.500000,1.406340,1.500000,0.219786,0.202854,1.000000,2.000000,3.471680,-19.797363,0.000000,0.000000
0.9400,20441,240,0,0,0.001310,0.009487,0.000000,0.000000,1.500000,1.500000,1.404625,1.500000,0.222892,0.205354,1.000000,2.000000,3.471680,-19.797363,0.000000,0.000000
0.9500,20442,240,0,0,0.001272,0.009546,0.000000,0.000000,1.500000,1.500000,1.402967,1.500000,0.225997,0.207854,1.000000,2.000000,3.471680,-19.797363,0.000000,0.000000
0.9600,20443,240,0,0,0.001432,0.009723,0.000000,0.000000,1.500000,1.500000,1.403332,1.500000,0.229103,0.210354,1.000000,2.000000,3.471680,-19.797363,0.000000,0.000000
0.9700,20444,240,0,0,0.001392,0.009402,0.000000,0.000000,1.500000,1.500000,1.402712,1.500000,0.232208,0.212854,1.000000,2.000000,3.471680,-19.797363,0.000000,0.000000
0.9800,20445,240,0,0,0.001512,0.009231,0.000000,0.000000,1.500000,1.500000,1.402384,1.500000,0.235314,0.215354,1.000000,2.000000,3.471680,-19.797363,0.000000,0.000000
0.9900,20446,240,0,0,0.001465,0.008940,0.000000,0.000000,1.500000,1.500000,1.402756,1.500000,0.238419,0.217854,1.000000,2.000000,3.471680,-19.797363,0.000000,0.000000
1.0000,20447,240,0,0,0.001637,0.009105,0.000000,0.000000,1.500000,1.500000,1.402026,1.500000,0.241525,0.220354,1.000000,2.000000,3.471680,-19.797363,0.000000,0.000000
1.0100,20448,240,0,0,0.001825,0.009385,0.000000,0.000000,1.500000,1.500000,1.402293,1.500000,0.244630,0.222854,1.000000,2.000000,3.471680,-19.797363,0.000000,0.000000
1.0200,20449,240,0,0,0.001771,0.009173,0.000000,0.000000,1.500000,1.500000,1.401045,1.500000,0.247736,0.225354,1.000000,2.000000,3.471680,-19.797363,0.000000,0.000000
1.0300,20450,240,0,0,0.001573,0.009460,0.000000,0.000000,1.500000,1.500000,1.401418,1.500000,0.250842,0.227854,1.000000,2.000000,3.471680,-19.797363,0.000000,0.000000
1.0400,20451,240,0,0,0.001439,0.009757,0.000000,0.000000,1.500000,1.500000,1.401855,1.500000,0.253947,0.230354,1.000000,2.000000,3.471680,-19.819336,0.000000,0.000000
1.0500,20452,240,0,0,0.001770,0.009703,0.000000,0.000000,1.500000,1.500000,1.400826,1.500000,0.257053,0.232854,1.000000,2.000000,3.471680,-19.819336,0.000000,0.000000
1.0600,20453,240,0,0,0.001592,0.009369,0.000000,0.000000,1.500000,1.500000,1.399961,1.500000,0.260159,0.235354,1.000000,2.000000,3.471680,-19.819336,0.000000,0.000000
1.0700,20454,240,0,0,0.001666,0.009063,0.000000,0.000000,1.500000,1.500000,1.398203,1.500000,0.263264,0.237854,1.000000,2.000000,3.471680,-19.819336,0.000000,0.000000
1.0800,20455,240,0,0,0.001544,0.008399,0.000000,0.000000,1.500000,1.500000,1.397735,1.500000,0.266370,0.240354,1.000000,2.000000,3.471680,-19.819336,0.000000,0.000000
1.0900,20456,240,0,0,0.001495,0.007978,0.000000,0.000000,1.500000,1.500000,1.396340,1.500000,0.269476,0.242854,1.000000,2.000000,3.471680,-19.819336,0.000000,0.000000
1.1000,20457,240,0,0,0.001390,0.008192,0.000000,0.000000,1.500000,1.500000,1.395857,1.500000,0.272582,0.245354,1.000000,2.000000,3.471680,-19.797363,0.000000,0.000000
1.1100,20458,240,0,0,0.001291,0.008154,0.000000,0.000000,1.500000,1.500000,1.394152,1.500000,0.275687,0.247854,1.000000,2.000000,3.471680,-19.797363,0.000000,0.000000
1.1200,20459,240,0,0,0.001533,0.008547,0.000000,0.000000,1.500000,1.500000,1.394610,1.500000,0.278793,0.250354,1.000000,2.000000,3.471680,-19.797363,0.000000,0.000000
1.1300,20460,240,0,0,0.001455,0.009061,0.000000,0.000000,1.500000,1.500000,1.394668,1.500000,0.281899,0.252854,1.000000,2.000000,3.471680,-19.797363,0.000000,0.000000
1.1400,20461,240,0,0,0.001594,0.009373,0.000000,0.000000,1.500000,1.500000,1.393763,1.500000,0.285004,0.255354,1.000000,2.000000,3.493652,-19.797363,0.000000,0.000000
1.1500,20462,240,0,0,0.001554,0.009353,0.000000,0.000000,1.500000,1.500000,1.391840,1.500000,0.288110,0.257854,1.000000,2.000000,3.493652,-19.797363,0.000000,0.000000
1.1600,20463,240,0,0,0.001601,0.009424,0.000000,0.000000,1.500000,1.500000,1.392936,1.500000,0.291216,0.260354,1.000000,2.000000,3.493652,-19.797363,0.000000,0.000000
1.1700,20464,240,0,0,0.001650,0.009168,0.000000,0.000000,1.500000,1.500000,1.393033,1.500000,0.294321,0.262854,1.000000,2.000000,3.493652,-19.797363,0.000000,0.000000
1.1800,20465,240,0,0,0.001770,0.009371,0.000000,0.000000,1.500000,1.500000,1.392208,1.500000,0.297427,0.265355,1.000000,2.000000,3.493652,-19.797363,0.000000,0.000000
1.1900,20466,240,0,0,0.001591,0.009107,0.000000,0.000000,1.500000,1.500000,1.392436,1.500000,0.300533,0.267855,1.000000,2.000000,3.493652,-19.797363,0.000000,0.000000
1.2000,20467,240,0,0,0.001723,0.008971,0.000000,0.000000,1.500000,1.500000,1.391784,1.500000,0.303639,0.270355,1.000000,2.000000,3.493652,-19.775391,0.000000,0.000000
1.2100,20468,240,0,0,0.001561,0.009328,0.000000,0.000000,1.500000,1.500000,1.392609,1.500000,0.306744,0.272855,1.000000,2.000000,3.515625,-19.775391,0.000000,0.000000
1.2200,20469,240,0,0,0.001560,0.009500,0.000000,0.000000,1.500000,1.500000,1.392136,1.500000,0.309850,0.275355,1.000000,2.000000,3.515625,-19.775391,0.000000,0.000000
1.2300,20470,240,0,0,0.001573,0.009665,0.000000,0.000000,1.500000,1.500000,1.392554,1.500000,0.312956,0.277855,1.000000,2.000000,3.515625,-19.775391,0.000000,0.000000
1.2400,20471,240,0,0,0.001485,0.009871,0.000000,0.000000,1.500000,1.500000,1.392726,1.500000,0.316061,0.280355,1.000000,2.000000,3.515625,-19.775391,0.000000,0.000000
1.2500,20472,240,0,0,0.001555,0.010090,0.000000,0.000000,1.500000,1.500000,1.393121,1.500000,0.319167,0.282855,1.000000,2.000000,3.515625,-19.753418,0.000000,0.000000
1.2600,20473,240,0,0,0.001445,0.010453,0.000000,0.000000,1.500000,1.500000,1.392747,1.500000,0.322273,0.285356,1.000000,2.000000,3.515625,-19.753418,0.000000,0.000000
1.2700,20474,240,0,0,0.001767,0.010207,0.000000,0.000000,1.500000,1.500000,1.393698,1.500000,0.325378,0.287856,1.000000,2.000000,3.515625,-19.753418,0.000000,0.000000
1.2800,20475,240,0,0,0.001668,0.010048,0.000000,0.000000,1.500000,1.500000,1.393641,1.500000,0.328484,0.290356,1.000000,2.000000,3.537598,-19.753418,0.000000,0.000000
1.2900,20476,240,0,0,0.001621,0.010806,0.000000,0.000000,1.500000,1.500000,1.393916,1.500000,0.331590,0.292856,1.000000,2.000000,3.537598,-19.753418,0.000000,0.000000
1.3000,20477,240,0,0,0.001446,0.010763,0.000000,0.000000,1.500000,1.500000,1.393616,1.500000,0.334696,0.295356,1.000000,2.000000,3.537598,-19.753418,0.000000,0.000000
1.3100,20478,240,0,0,0.001399,0.010782,0.000000,0.000000,1.500000,1.500000,1.393800,1.500000,0.337801,0.297856,1.000000,2.000000,3.537598,-19.753418,0.000000,0.000000
1.3200,20479,240,0,0,0.001417,0.010784,0.000000,0.000000,1.500000,1.500000,1.395134,1.500000,0.340907,0.300356,1.000000,2.000000,3.537598,-19.731445,0.000000,0.000000
1.3300,20480,240,0,0,0.001345,0.010643,0.000000,0.000000,1.500000,1.500000,1.395182,1.500000,0.344013,0.302856,1.000000,2.000000,3.559570,-19.731445,0.000000,0.000000
1.3400,20481,240,0,0,0.001445,0.010517,0.000000,0.000000,1.500000,1.500000,1.394601,1.500000,0.347118,0.305356,1.000000,2.000000,3.559570,-19.731445,0.000000,0.000000
1.3500,20482,240,0,0,0.001484,0.010339,0.000000,0.000000,1.500000,1.500000,1.393961,1.500000,0.350224,0.307857,1.000000,2.000000,3.559570,-19.731445,0.000000,0.000000
1.3600,20483,240,0,0,0.001337,0.009668,0.000000,0.000000,1.500000,1.500000,1.393376,1.500000,0.353330,0.310357,1.000000,2.000000,3.559570,-19.709473,0.000000,0.000000
1.3700,20484,240,0,0,0.001194,0.009394,0.000000,0.000000,1.500000,1.500000,1.393286,1.500000,0.356435,0.312857,1.000000,2.000000,3.559570,-19.709473,0.000000,0.000000
1.3800,20485,240,0,0,0.001328,0.009592,0.000000,0.000000,1.500000,1.500000,1.395067,1.500000,0.359541,0.315357,1.000000,2.000000,3.581543,-19.709473,0.000000,0.000000
1.3900,20487,240,0,0,0.001398,0.009873,0.000000,0.000000,1.500000,1.500000,1.394696,1.500000,0.365753,0.320357,1.000000,2.000000,3.581543,-19.709473,0.000000,0.000000
1.4000,20488,240,0,0,0.001445,0.009631,0.000000,0.000000,1.500000,1.500000,1.396225,1.500000,0.368858,0.322857,1.000000,2.000000,3.581543,-19.709473,0.000000,0.000000
1.4100,20489,240,0,0,0.001299,0.009312,0.000000,0.000000,1.500000,1.500000,1.396667,1.500000,0.371964,0.325357,1.000000,2.000000,3.581543,-19.709473,0.000000,0.000000
1.4200,20490,240,0,0,0.001344,0.009334,0.000000,0.000000,1.500000,1.500000,1.395457,1.500000,0.375070,0.327858,1.000000,2.000000,3.581543,-19.687500,0.000000,0.000000
1.4300,20491,240,0,0,0.001504,0.009646,0.000000,0.000000,1.500000,1.500000,1.395620,1.500000,0.378175,0.330358,1.000000,2.000000,3.603516,-19.687500,0.000000,0.000000
1.4400,20492,240,0,0,0.001638,0.009457,0.000000,0.000000,1.500000,1.500000,1.394876,1.500000,0.381281,0.332858,1.000000,2.000000,3.603516,-19.687500,0.000000,0.000000
1.4500,20493,240,0,0,0.001725,0.009094,0.000000,0.000000,1.500000,1.500000,1.396031,1.500000,0.384387,0.335358,1.000000,2.000000,3.603516,-19.687500,0.000000,0.000000
1.4600,20494,240,0,0,0.001662,0.009763,0.000000,0.000000,1.500000,1.500000,1.396580,1.500000,0.387492,0.337858,1.000000,2.000000,3.603516,-19.687500,0.000000,0.000000
1.4700,20495,240,0,0,0.001724,0.010274,0.000000,0.000000,1.500000,1.500000,1.397391,1.500000,0.390598,0.340358,1.000000,2.000000,3.603516,-19.687500,0.000000,0.000000
1.4800,20496,240,0,0,0.001684,0.010195,0.000000,0.000000,1.500000,1.500000,1.397085,1.500000,0.393704,0.342858,1.000000,2.000000,3.603516,-19.687500,0.000000,0.000000
1.4900,20497,240,0,0,0.001563,0.010109,0.000000,0.000000,1.500000,1.500000,1.397908,1.500000,0.396810,0.345358,1.000000,2.000000,3.603516,-19.665527,0.000000,0.000000
1.5000,20498,240,0,0,0.001421,0.010201,0.000000,0.000000,1.500000,1.500000,1.398204,1.500000,0.399915,0.347858,1.000000,2.000000,3.625488,-19.665527,0.000000,0.000000
1.5100,20499,240,0,0,0.001355,0.009509,0.000000,0.000000,1.500000,1.500000,1.398525,1.500000,0.403021,0.350359,1.000000,2.000000,3.625488,-19.665527,0.000000,0.000000
1.5200,20500,240,0,0,0.001337,0.009110,0.000000,0.000000,1.500000,1.500000,1.397273,1.500000,0.406127,0.352859,1.000000,2.000000,3.625488,-19.665527,0.000000,0.000000
1.5300,20501,240,0,0,0.001297,0.008581,0.000000,0.000000,1.500000,1.500000,1.397720,1.500000,0.409232,0.355359,1.000000,2.000000,3.625488,-19.643555,0.000000,0.000000
1.5400,20502,240,0,0,0.001688,0.009152,0.000000,0.000000,1.500000,1.500000,1.397042,1.500000,0.412338,0.357859,1.000000,2.000000,3.647461,-19.643555,0.000000,0.000000
1.5500,20503,240,0,0,0.001810,0.009443,0.000000,0.000000,1.500000,1.500000,1.396791,1.500000,0.415444,0.360359,1.000000,2.000000,3.647461,-19.643555,0.000000,0.000000
1.5600,20504,240,0,0,0.001857,0.010129,0.000000,0.000000,1.500000,1.500000,1.398050,1.500000,0.418549,0.362859,1.000000,2.000000,3.647461,-19.643555,0.000000,0.000000
1.5700,20505,240,0,0,0.001629,0.009844,0.000000,0.000000,1.500000,1.500000,1.398786,1.500000,0.421655,0.365359,1.000000,2.000000,3.669434,-19.621582,0.000000,0.000000
1.5800,20506,240,0,0,0.001503,0.009988,0.000000,0.000000,1.500000,1.500000,1.397241,1.500000,0.424761,0.367859,1.000000,2.000000,3.669434,-19.621582,0.000000,0.000000
1.5900,20507,240,0,0,0.001615,0.009444,0.000000,0.000000,1.500000,1.500000,1.398526,1.500000,0.427867,0.370360,1.000000,2.000000,3.669434,-19.621582,0.000000,0.000000
1.6000,20508,240,0,0,0.001688,0.009582,0.000000,0.000000,1.500000,1.500000,1.398176,1.500000,0.430972,0.372860,1.000000,2.000000,3.669434,-19.621582,0.000000,0.000000
1.6100,20509,240,0,0,0.002060,0.009445,0.000000,0.000000,1.500000,1.500000,1.398770,1.500000,0.434078,0.375360,1.000000,2.000000,3.691406,-19.599609,0.000000,0.000000
1.6200,20510,240,0,0,0.001816,0.009211,0.000000,0.000000,1.500000,1.500000,1.398146,1.500000,0.437184,0.377860,1.000000,2.000000,3.691406,-19.599609,0.000000,0.000000
1.6300,20511,240,0,0,0.002225,0.008501,0.000000,0.000000,1.500000,1.500000,1.397685,1.500000,0.440289,0.380360,1.000000,2.000000,3.691406,-19.599609,0.000000,0.000000
1.6400,20512,240,0,0,0.002125,0.008226,0.000000,0.000000,1.500000,1.500000,1.398708,1.500000,0.443395,0.382860,1.000000,2.000000,3.713379,-19.577637,0.000000,0.000000
1.6500,20513,240,0,0,0.001978,0.008286,0.000000,0.000000,1.500000,1.500000,1.398941,1.500000,0.446501,0.385360,1.000000,2.000000,3.713379,-19.577637,0.000000,0.000000
1.6600,20514,240,0,0,0.001967,0.008785,0.000000,0.000000,1.500000,1.500000,1.399154,1.500000,0.449606,0.387860,1.000000,2.000000,3.713379,-19.577637,0.000000,0.000000
1.6700,20515,240,0,0,0.002025,0.009636,0.000000,0.000000,1.500000,1.500000,1.399037,1.500000,0.452712,0.390360,1.000000,2.000000,3.735352,-19.555664,0.000000,0.000000
1.6800,20516,240,0,0,0.001950,0.009641,0.000000,0.000000,1.500000,1.500000,1.399247,1.500000,0.455818,0.392861,1.000000,2.000000,3.735352,-19.555664,0.000000,0.000000
1.6900,20517,240,0,0,0.001952,0.009083,0.000000,0.000000,1.500000,1.500000,1.400011,1.500000,0.458924,0.395361,1.000000,2.000000,3.735352,-19.555664,0.000000,0.000000
1.7000,20518,240,0,0,0.002018,0.008893,0.000000,0.000000,1.500000,1.500000,1.400764,1.500000,0.462029,0.397861,1.000000,2.000000,3.757324,-19.533691,0.000000,0.000000
1.7100,20519,240,0,0,0.001816,0.009276,0.000000,0.000000,1.500000,1.500000,1.401520,1.500000,0.465135,0.400361,1.000000,2.000000,3.757324,-19.533691,0.000000,0.000000
1.7200,20520,240,0,0,0.001661,0.009336,0.000000,0.000000,1.500000,1.500000,1.401122,1.500000,0.468241,0.402861,1.000000,2.000000,3.757324,-19.533691,0.000000,0.000000
1.7300,20521,240,0,0,0.001496,0.009501,0.000000,0.000000,1.500000,1.500000,1.401063,1.500000,0.471346,0.405361,1.000000,2.000000,3.757324,-19.533691,0.000000,0.000000
1.7400,20522,240,0,0,0.001363,0.009336,0.000000,0.000000,1.500000,1.500000,1.400128,1.500000,0.474452,0.407861,1.000000,2.000000,3.757324,-19.511719,0.000000,0.000000
1.7500,20523,240,0,0,0.001497,0.009274,0.000000,0.000000,1.500000,1.500000,1.399989,1.500000,0.477558,0.410361,1.000000,2.000000,3.779297,-19.511719,0.000000,0.000000
1.7600,20524,240,0,0,0.001295,0.009560,0.000000,0.000000,1.500000,1.500000,1.400475,1.500000,0.480663,0.412861,1.000000,2.000000,3.779297,-19.511719,0.000000,0.000000
1.7700,20525,240,0,0,0.001385,0.009652,0.000000,0.000000,1.500000,1.500000,1.400919,1.500000,0.483769,0.415362,1.000000,2.000000,3.779297,-19.511719,0.000000,0.000000
1.7800,20526,240,0,0,0.001446,0.008996,0.000000,0.000000,1.500000,1.500000,1.399926,1.500000,0.486875,0.417862,1.000000,2.000000,3.801270,-19.489746,0.000000,0.000000
1.7900,20527,240,0,0,0.001391,0.008718,0.000000,0.000000,1.500000,1.500000,1.400979,1.500000,0.489981,0.420362,1.000000,2.000000,3.801270,-19.489746,0.000000,0.000000
1.8000,20528,240,0,0,0.001685,0.008254,0.000000,0.000000,1.500000,1.500000,1.401755,1.500000,0.493086,0.422862,1.000000,2.000000,3.801270,-19.489746,0.000000,0.000000
1.8100,20529,240,0,0,0.001519,0.008073,0.000000,0.000000,1.500000,1.500000,1.402222,1.500000,0.496192,0.425362,1.000000,2.000000,3.823242,-19.467773,0.000000,0.000000
1.8200,20530,240,0,0,0.001393,0.007578,0.000000,0.000000,1.500000,1.500000,1.401025,1.500000,0.499298,0.427862,1.000000,2.000000,3.823242,-19.467773,0.000000,0.000000
1.8300,20531,240,0,0,0.001532,0.008048,0.000000,0.000000,1.500000,1.500000,1.400976,1.500000,0.502403,0.430362,1.000000,2.000000,3.823242,-19.445801,0.000000,0.000000
1.8400,20532,240,0,0,0.001576,0.009186,0.000000,0.000000,1.500000,1.500000,1.399749,1.500000,0.505508,0.432862,1.000000,2.000000,3.845215,-19.445801,0.000000,0.000000
1.8500,20533,240,0,0,0.001652,0.009603,0.000000,0.000000,1.500000,1.500000,1.400715,1.500000,0.508614,0.435363,1.000000,2.000000,3.845215,-19.423828,0.000000,0.000000
1.8600,20534,240,0,0,0.001710,0.010039,0.000000,0.000000,1.500000,1.500000,1.401367,1.500000,0.511719,0.437863,1.000000,2.000000,3.867188,-19.423828,0.000000,0.000000
1.8700,20535,240,0,0,0.001730,0.010136,0.000000,0.000000,1.500000,1.500000,1.401978,1.500000,0.514825,0.440363,1.000000,2.000000,3.867188,-19.401855,0.000000,0.000000
1.8800,20537,240,0,0,0.001705,0.010160,0.000000,0.000000,1.500000,1.500000,1.401876,1.500000,0.521035,0.445363,1.000000,2.000000,3.889160,-19.379883,0.000000,0.000000
1.8900,20538,240,0,0,0.001544,0.010226,0.000000,0.000000,1.500000,1.500000,1.402537,1.500000,0.524141,0.447863,1.000000,2.000000,3.911133,-19.379883,0.000000,0.000000
1.9000,20539,240,0,0,0.001385,0.009555,0.000000,0.000000,1.500000,1.500000,1.402318,1.500000,0.527246,0.450363,1.000000,2.000000,3.911133,-19.379883,0.000000,0.000000
1.9100,20540,240,0,0,0.001367,0.009630,0.000000,0.000000,1.500000,1.500000,1.402867,1.500000,0.530352,0.452863,1.000000,2.000000,3.911133,-19.357910,0.000000,0.000000
1.9200,20541,240,0,0,0.001403,0.009455,0.000000,0.000000,1.500000,1.500000,1.402975,1.500000,0.533457,0.455363,1.000000,2.000000,3.933105,-19.357910,0.000000,0.000000
1.9300,20542,240,0,0,0.001534,0.009094,0.000000,0.000000,1.500000,1.500000,1.402075,1.500000,0.536563,0.457864,1.000000,2.000000,3.933105,-19.335938,0.000000,0.000000
1.9400,20543,240,0,0,0.001735,0.009408,0.000000,0.000000,1.500000,1.500000,1.402165,1.500000,0.539668,0.460364,1.000000,2.000000,3.955078,-19.335938,0.000000,0.000000
1.9500,20544,240,0,0,0.001790,0.009907,0.000000,0.000000,1.500000,1.500000,1.401911,1.500000,0.542773,0.462864,1.000000,2.000000,3.955078,-19.313965,0.000000,0.000000
1.9600,20545,240,0,0,0.001735,0.010498,0.000000,0.000000,1.500000,1.500000,1.402113,1.500000,0.545879,0.465364,1.000000,2.000000,3.955078,-19.313965,0.000000,0.000000
1.9700,20546,240,0,0,0.001612,0.010397,0.000000,0.000000,1.500000,1.500000,1.402598,1.500000,0.548984,0.467864,1.000000,2.000000,3.977051,-19.313965,0.000000,0.000000
1.9800,20547,240,0,0,0.001459,0.010446,0.000000,0.000000,1.500000,1.500000,1.402667,1.500000,0.552090,0.470364,1.000000,2.000000,3.977051,-19.313965,0.000000,0.000000
1.9900,20548,240,0,0,0.001667,0.010481,0.000000,0.000000,1.500000,1.500000,1.401616,1.500000,0.555195,0.472864,1.000000,2.000000,3.977051,-19.291992,0.000000,0.000000
2.0000,20549,240,0,0,0.001847,0.010312,0.000000,0.000000,1.500000,1.500000,1.401914,1.500000,0.558300,0.475364,1.000000,2.000000,3.999023,-19.291992,0.000000,0.000000
2.0100,20550,240,0,0,0.001696,0.010227,0.000000,0.000000,1.500000,1.500000,1.401879,1.500000,0.561406,0.477865,1.000000,2.000000,3.999023,-19.291992,0.000000,0.000000
2.0200,20551,240,0,0,0.001749,0.009901,0.000000,0.000000,1.500000,1.500000,1.401377,1.500000,0.564511,0.480365,1.000000,2.000000,3.999023,-19.270020,0.000000,0.000000
2.0300,20552,240,0,0,0.001741,0.008970,0.000000,0.000000,1.500000,1.500000,1.400764,1.500000,0.567617,0.482865,1.000000,2.000000,3.999023,-19.270020,0.000000,0.000000
2.0400,20553,240,0,0,0.001865,0.009055,0.000000,0.000000,1.500000,1.500000,1.401754,1.500000,0.570722,0.485365,1.000000,2.000000,4.020996,-19.270020,0.000000,0.000000
2.0500,20554,240,0,0,0.001780,0.009049,0.000000,0.000000,1.500000,1.500000,1.402169,1.500000,0.573827,0.487865,1.000000,2.000000,4.020996,-19.248047,0.000000,0.000000
2.0600,20555,240,0,0,0.001634,0.008584,0.000000,0.000000,1.500000,1.500000,1.401809,1.500000,0.576933,0.490365,1.000000,2.000000,4.020996,-19.248047,0.000000,0.000000
2.0700,20556,240,0,0,0.001725,0.008889,0.000000,0.000000,1.500000,1.500000,1.402370,1.500000,0.580038,0.492865,1.000000,2.000000,4.042969,-19.248047,0.000000,0.000000
2.0800,20557,240,0,0,0.001470,0.008945,0.000000,0.000000,1.500000,1.500000,1.403070,1.500000,0.583144,0.495365,1.000000,2.000000,4.042969,-19.226074,0.000000,0.000000
2.0900,20558,240,0,0,0.001345,0.008956,0.000000,0.000000,1.500000,1.500000,1.403663,1.500000,0.586249,0.497865,1.000000,2.000000,4.042969,-19.226074,0.000000,0.000000
2.1000,20559,240,0,0,0.001365,0.009270,0.000000,0.000000,1.500000,1.500000,1.403474,1.500000,0.589354,0.500366,1.000000,2.000000,4.042969,-19.226074,0.000000,0.000000
2.1100,20560,240,0,0,0.001274,0.010912,0.000000,0.000000,1.500000,1.500000,1.404424,1.500000,0.592460,0.502865,1.000000,2.000000,4.064941,-19.204102,0.000000,0.000000
2.1200,20561,240,0,0,0.001194,0.011016,0.000000,0.000000,1.500000,1.500000,1.405214,1.500000,0.595565,0.505365,1.000000,2.000000,4.064941,-19.204102,0.000000,0.000000
2.1300,20562,240,0,0,0.001147,0.011075,0.000000,0.000000,1.500000,1.500000,1.405884,1.500000,0.598671,0.507865,1.000000,2.000000,4.064941,-19.204102,0.000000,0.000000
2.1400,20563,240,0,0,0.001210,0.011479,0.000000,0.000000,1.500000,1.500000,1.406330,1.500000,0.601776,0.510365,1.000000,2.000000,4.064941,-19.204102,0.000000,0.000000
2.1500,20564,240,0,0,0.001154,0.010761,0.000000,0.000000,1.500000,1.500000,1.406606,1.500000,0.604881,0.512865,1.000000,2.000000,4.086914,-19.182129,0.000000,0.000000
2.1600,20565,240,0,0,0.001410,0.010581,0.000000,0.000000,1.500000,1.500000,1.407543,1.500000,0.607987,0.515364,1.000000,2.000000,4.086914,-19.182129,0.000000,0.000000
2.1700,20566,240,0,0,0.001451,0.010732,0.000000,0.000000,1.500000,1.500000,1.408576,1.500000,0.611092,0.517864,1.000000,2.000000,4.086914,-19.182129,0.000000,0.000000
2.1800,20567,240,0,0,0.001416,0.009993,0.000000,0.000000,1.500000,1.500000,1.409131,1.500000,0.614198,0.520364,1.000000,2.000000,4.086914,-19.160156,0.000000,0.000000
2.1900,20568,240,0,0,0.001436,0.009088,0.000000,0.000000,1.500000,1.500000,1.409829,1.500000,0.617303,0.522864,1.000000,2.000000,4.086914,-19.160156,0.000000,0.000000
2.2000,20569,240,0,0,0.001366,0.009197,0.000000,0.000000,1.500000,1.499108,1.410939,1.500000,0.620408,0.525364,1.000000,2.000000,4.108887,-19.160156,0.000000,0.000000
2.2100,20570,240,0,0,0.001185,0.008959,0.000000,0.000000,1.500000,1.495102,1.410610,1.500000,0.623514,0.527864,1.000000,2.000000,4.108887,-19.138184,0.000000,0.000000
2.2200,20571,240,0,0,0.001218,0.009467,0.000000,0.000000,1.500000,1.494155,1.412921,1.500000,0.626619,0.530363,1.000000,2.000000,4.108887,-19.138184,0.000000,0.000000
2.2300,20572,240,0,0,0.001277,0.009223,0.000000,0.000000,1.500000,1.489966,1.414936,1.500000,0.629725,0.532863,1.000000,2.000000,4.130859,-19.116211,0.000000,0.000000
2.2400,20573,240,0,0,0.001479,0.009003,0.000000,0.000000,1.500000,1.487650,1.416180,1.500000,0.632830,0.535363,1.000000,2.000000,4.130859,-19.116211,0.000000,0.000000
2.2500,20574,240,0,0,0.001498,0.009288,0.000000,0.000000,1.500000,1.482634,1.417889,1.500000,0.635935,0.537863,1.000000,2.000000,4.130859,-19.094238,0.000000,0.000000
2.2600,20575,240,0,0,0.001648,0.009205,0.000000,0.000000,1.500000,1.480769,1.419298,1.500000,0.639041,0.540363,1.000000,2.000000,4.152832,-19.094238,0.000000,0.000000
2.2700,20576,240,0,0,0.001880,0.009567,0.000000,0.000000,1.500000,1.476819,1.420604,1.500000,0.642146,0.542862,1.000000,2.000000,4.152832,-19.094238,0.000000,0.000000
2.2800,20577,240,0,0,0.001936,0.010160,0.000000,0.000000,1.500000,1.476479,1.422045,1.500000,0.645252,0.545362,1.000000,2.000000,4.152832,-19.072266,0.000000,0.000000
2.2900,20578,240,0,0,0.001913,0.010206,0.000000,0.000000,1.500000,1.474481,1.424647,1.500000,0.648357,0.547862,1.000000,2.000000,4.174805,-19.072266,0.000000,0.000000
2.3000,20579,240,0,0,0.002500,0.010468,0.000000,0.000000,1.500000,1.470680,1.424340,1.500000,0.651462,0.550362,1.000000,2.000000,4.174805,-19.050293,0.000000,0.000000
2.3100,20580,240,0,0,0.002339,0.010111,0.000000,0.000000,1.500000,1.473241,1.426059,1.500000,0.654568,0.552862,1.000000,2.000000,4.174805,-19.050293,0.000000,0.000000
2.3200,20581,240,0,0,0.001953,0.009595,0.000000,0.000000,1.500000,1.472871,1.427541,1.500000,0.657673,0.555362,1.000000,2.000000,4.196777,-19.050293,0.000000,0.000000
2.3300,20582,240,0,0,0.001813,0.009861,0.000000,0.000000,1.500000,1.471374,1.429081,1.500000,0.660779,0.557861,1.000000,2.000000,4.196777,-19.028320,0.000000,0.000000
2.3400,20583,240,0,0,0.001775,0.010163,0.000000,0.000000,1.500000,1.469768,1.429483,1.500000,0.663884,0.560361,1.000000,2.000000,4.218750,-19.028320,0.000000,0.000000
2.3500,20584,240,0,0,0.001810,0.010035,0.000000,0.000000,1.500000,1.468875,1.431001,1.500000,0.666989,0.562861,1.000000,2.000000,4.218750,-19.028320,0.000000,0.000000
2.3600,20585,240,0,0,0.001527,0.009614,0.000000,0.000000,1.500000,1.468165,1.432057,1.500000,0.670095,0.565361,1.000000,2.000000,4.218750,-19.006348,0.000000,0.000000
2.3700,20587,240,0,0,0.001710,0.009163,0.000000,0.000000,1.500000,1.468016,1.433040,1.500000,0.676306,0.570360,1.000000,2.000000,4.240723,-18.984375,0.000000,0.000000
2.3800,20588,240,0,0,0.001669,0.009043,0.000000,0.000000,1.500000,1.468781,1.433843,1.500000,0.679411,0.572860,1.000000,2.000000,4.262695,-18.984375,0.000000,0.000000
2.3900,20589,240,0,0,0.001598,0.009188,0.000000,0.000000,1.500000,1.468619,1.435200,1.500000,0.682516,0.575360,1.000000,2.000000,4.262695,-18.984375,0.000000,0.000000
2.4000,20590,240,0,0,0.001683,0.009358,0.000000,0.000000,1.500000,1.466673,1.435747,1.500000,0.685622,0.577860,1.000000,2.000000,4.262695,-18.984375,0.000000,0.000000
2.4100,20591,240,0,0,0.001732,0.009562,0.000000,0.000000,1.500000,1.468556,1.436414,1.500000,0.688727,0.580360,1.000000,2.000000,4.262695,-18.962402,0.000000,0.000000
2.4200,20592,240,0,0,0.001811,0.009733,0.000000,0.000000,1.500000,1.470381,1.436019,1.500000,0.691833,0.582860,1.000000,2.000000,4.284668,-18.962402,0.000000,0.000000
2.4300,20593,240,0,0,0.002112,0.009618,0.000000,0.000000,1.500000,1.469583,1.437487,1.500000,0.694938,0.585359,1.000000,2.000000,4.284668,-18.962402,0.000000,0.000000
2.4400,20594,240,0,0,0.002307,0.009853,0.000000,0.000000,1.500000,1.470845,1.437519,1.500000,0.698043,0.587859,1.000000,2.000000,4.284668,-18.962402,0.000000,0.000000
2.4500,20595,240,0,0,0.002368,0.009991,0.000000,0.000000,1.500000,1.474490,1.439101,1.500000,0.701149,0.590359,1.000000,2.000000,4.284668,-18.962402,0.000000,0.000000
2.4600,20596,240,0,0,0.002502,0.009719,0.000000,0.000000,1.500000,1.475359,1.439599,1.500000,0.704254,0.592859,1.000000,2.000000,4.284668,-18.962402,0.000000,0.000000
2.4700,20597,240,0,0,0.002390,0.009434,0.000000,0.000000,1.500000,1.474835,1.439736,1.500000,0.707360,0.595359,1.000000,2.000000,4.306641,-18.962402,0.000000,0.000000
2.4800,20598,240,0,0,0.002270,0.008798,0.000000,0.000000,1.500000,1.475159,1.440327,1.500000,0.710465,0.597858,1.000000,2.000000,4.306641,-18.940430,0.000000,0.000000
2.4900,20599,240,0,0,0.001933,0.008554,0.000000,0.000000,1.500000,1.475639,1.441442,1.500000,0.713570,0.600358,1.000000,2.000000,4.306641,-18.940430,0.000000,0.000000
2.5000,20600,240,0,0,0.001826,0.008563,0.000000,0.000000,1.500000,1.472233,1.441098,1.500000,0.716676,0.602858,1.000000,2.000000,4.306641,-18.940430,0.000000,0.000000
2.5100,20601,240,0,0,0.001867,0.008684,0.000000,0.000000,1.500000,1.474298,1.439746,1.500000,0.719781,0.605358,1.000000,2.000000,4.306641,-18.940430,0.000000,0.000000
2.5200,20602,240,0,0,0.001648,0.008957,0.000000,0.000000,1.500000,1.476215,1.441061,1.500000,0.722887,0.607858,1.000000,2.000000,4.306641,-18.940430,0.000000,0.000000
2.5300,20603,240,0,0,0.001628,0.008659,0.000000,0.000000,1.500000,1.474920,1.441027,1.500000,0.725992,0.610358,1.000000,2.000000,4.328613,-18.918457,0.000000,0.000000
2.5400,20604,240,0,0,0.001568,0.008966,0.000000,0.000000,1.500000,1.478071,1.442157,1.500000,0.729097,0.612857,1.000000,2.000000,4.328613,-18.918457,0.000000,0.000000
2.5500,20605,240,0,0,0.001675,0.009321,0.000000,0.000000,1.500000,1.477414,1.441850,1.500000,0.732203,0.615357,1.000000,2.000000,4.328613,-18.918457,0.000000,0.000000
2.5600,20606,240,0,0,0.001579,0.009181,0.000000,0.000000,1.500000,1.479675,1.442222,1.500000,0.735308,0.617857,1.000000,2.000000,4.328613,-18.918457,0.000000,0.000000
2.5700,20607,240,0,0,0.001513,0.009539,0.000000,0.000000,1.500000,1.477764,1.442949,1.500000,0.738414,0.620357,1.000000,2.000000,4.328613,-18.918457,0.000000,0.000000
2.5800,20608,240,0,0,0.001477,0.009535,0.000000,0.000000,1.500000,1.480100,1.443398,1.500000,0.741519,0.622857,1.000000,2.000000,4.328613,-18.918457,0.000000,0.000000
2.5900,20609,240,0,0,0.001358,0.009040,0.000000,0.000000,1.500000,1.480046,1.445096,1.500000,0.744624,0.625356,1.000000,2.000000,4.350586,-18.918457,0.000000,0.000000
2.6000,20610,240,0,0,0.001301,0.009767,0.000000,0.000000,1.500000,1.481869,1.444284,1.500000,0.747730,0.627856,1.000000,2.000000,4.350586,-18.896484,0.000000,0.000000
2.6100,20611,240,0,0,0.001429,0.009782,0.000000,0.000000,1.500000,1.484077,1.443398,1.500000,0.750835,0.630356,1.000000,2.000000,4.350586,-18.896484,0.000000,0.000000
2.6200,20612,240,0,0,0.001740,0.009290,0.000000,0.000000,1.500000,1.486014,1.443513,1.500000,0.753941,0.632856,1.000000,2.000000,4.350586,-18.896484,0.000000,0.000000
2.6300,20613,240,0,0,0.001965,0.009136,0.000000,0.000000,1.500000,1.487271,1.445267,1.500000,0.757046,0.635356,1.000000,2.000000,4.350586,-18.896484,0.000000,0.000000
2.6400,20614,240,0,0,0.002062,0.009127,0.000000,0.000000,1.500000,1.487066,1.445848,1.500000,0.760151,0.637856,1.000000,2.000000,4.350586,-18.896484,0.000000,0.000000
2.6500,20615,240,0,0,0.001823,0.009396,0.000000,0.000000,1.500000,1.488781,1.446364,1.500000,0.763257,0.640355,1.000000,2.000000,4.372559,-18.896484,0.000000,0.000000
2.6600,20616,240,0,0,0.001856,0.009751,0.000000,0.000000,1.500000,1.488989,1.446366,1.500000,0.766362,0.642855,1.000000,2.000000,4.372559,-18.896484,0.000000,0.000000
2.6700,20617,240,0,0,0.001642,0.009572,0.000000,0.000000,1.500000,1.491287,1.448008,1.500000,0.769468,0.645355,1.000000,2.000000,4.372559,-18.896484,0.000000,0.000000
2.6800,20618,240,0,0,0.001580,0.009523,0.000000,0.000000,1.500000,1.490260,1.448429,1.500000,0.772573,0.647855,1.000000,2.000000,4.372559,-18.896484,0.000000,0.000000
2.6900,20619,240,0,0,0.001552,0.009522,0.000000,0.000000,1.500000,1.490935,1.447476,1.500000,0.775678,0.650355,1.000000,2.000000,4.372559,-18.874512,0.000000,0.000000
2.7000,20620,240,0,0,0.001696,0.009854,0.000000,0.000000,1.500000,1.492338,1.447591,1.500000,0.778784,0.652855,1.000000,2.000000,4.372559,-18.874512,0.000000,0.000000
2.7100,20621,240,0,0,0.001644,0.010047,0.000000,0.000000,1.500000,1.492830,1.447128,1.500000,0.781889,0.655354,1.000000,2.000000,4.372559,-18.874512,0.000000,0.000000
2.7200,20622,240,0,0,0.001403,0.009650,0.000000,0.000000,1.500000,1.494020,1.448092,1.500000,0.784995,0.657854,1.000000,2.000000,4.372559,-18.874512,0.000000,0.000000
2.7300,20623,240,0,0,0.001335,0.009850,0.000000,0.000000,1.500000,1.495407,1.447905,1.500000,0.788100,0.660354,1.000000,2.000000,4.372559,-18.874512,0.000000,0.000000
2.7400,20624,240,0,0,0.001260,0.009725,0.000000,0.000000,1.500000,1.493957,1.448064,1.500000,0.791205,0.662854,1.000000,2.000000,4.372559,-18.874512,0.000000,0.000000
2.7500,20625,240,0,0,0.001471,0.010015,0.000000,0.000000,1.500000,1.496544,1.448114,1.500000,0.794311,0.665354,1.000000,2.000000,4.372559,-18.874512,0.000000,0.000000
2.7600,20626,240,0,0,0.001491,0.009712,0.000000,0.000000,1.500000,1.496431,1.448433,1.500000,0.797416,0.667853,1.000000,2.000000,4.372559,-18.874512,0.000000,0.000000
2.7700,20627,240,0,0,0.001524,0.009694,0.000000,0.000000,1.500000,1.495982,1.449221,1.500000,0.800522,0.670353,1.000000,2.000000,4.372559,-18.874512,0.000000,0.000000
2.7800,20628,240,0,0,0.001996,0.010095,0.000000,0.000000,1.500000,1.495231,1.449577,1.500000,0.803627,0.672853,1.000000,2.000000,4.372559,-18.874512,0.000000,0.000000
2.7900,20629,240,0,0,0.002510,0.009950,0.000000,0.000000,1.500000,1.495187,1.449169,1.500000,0.806732,0.675353,1.000000,2.000000,4.372559,-18.874512,0.000000,0.000000
2.8000,20630,240,0,0,0.002343,0.009343,0.000000,0.000000,1.500000,1.496255,1.448640,1.500000,0.809838,0.677853,1.000000,2.000000,4.394531,-18.874512,0.000000,0.000000
2.8100,20631,240,0,0,0.002087,0.009322,0.000000,0.000000,1.500000,1.496556,1.449190,1.500000,0.812943,0.680353,1.000000,2.000000,4.394531,-18.874512,0.000000,0.000000
2.8200,20632,240,0,0,0.001854,0.009405,0.000000,0.000000,1.500000,1.496329,1.449723,1.500000,0.816049,0.682852,1.000000,2.000000,4.394531,-18.874512,0.000000,0.000000
2.8300,20633,240,0,0,0.001781,0.009207,0.000000,0.000000,1.500000,1.492619,1.449307,1.500000,0.819154,0.685352,1.000000,2.000000,4.394531,-18.874512,0.000000,0.000000
2.8400,20634,240,0,0,0.001741,0.009123,0.000000,0.000000,1.500000,1.494370,1.449342,1.500000,0.822259,0.687852,1.000000,2.000000,4.394531,-18.874512,0.000000,0.000000
2.8500,20635,240,0,0,0.001545,0.009100,0.000000,0.000000,1.500000,1.494110,1.450037,1.500000,0.825365,0.690352,1.000000,2.000000,4.394531,-18.852539,0.000000,0.000000
2.8600,20637,240,0,0,0.001452,0.008928,0.000000,0.000000,1.500000,1.491420,1.450526,1.500000,0.831576,0.695351,1.000000,2.000000,4.394531,-18.852539,0.000000,0.000000
2.8700,20638,240,0,0,0.001337,0.008743,0.000000,0.000000,1.500000,1.492432,1.451467,1.500000,0.834681,0.697851,1.000000,2.000000,4.394531,-18.852539,0.000000,0.000000
2.8800,20639,240,0,0,0.001272,0.008816,0.000000,0.000000,1.500000,1.493641,1.451846,1.500000,0.837786,0.700351,1.000000,2.000000,4.394531,-18.852539,0.000000,0.000000
2.8900,20640,240,0,0,0.001150,0.008778,0.000000,0.000000,1.500000,1.493983,1.451134,1.500000,0.840892,0.702851,1.000000,2.000000,4.394531,-18.852539,0.000000,0.000000
2.9000,20641,240,0,0,0.001129,0.009059,0.000000,0.000000,1.500000,1.494875,1.450494,1.500000,0.843997,0.705351,1.000000,2.000000,4.416504,-18.852539,0.000000,0.000000
2.9100,20642,240,0,0,0.001169,0.009514,0.000000,0.000000,1.500000,1.494905,1.450447,1.500000,0.847103,0.707851,1.000000,2.000000,4.416504,-18.852539,0.000000,0.000000
2.9200,20643,240,0,0,0.001209,0.009667,0.000000,0.000000,1.500000,1.495732,1.450897,1.500000,0.850208,0.710350,1.000000,2.000000,4.416504,-18.852539,0.000000,0.000000
2.9300,20644,240,0,0,0.001108,0.009416,0.000000,0.000000,1.500000,1.496547,1.451257,1.500000,0.853314,0.712850,1.000000,2.000000,4.416504,-18.830566,0.000000,0.000000
2.9400,20645,240,0,0,0.001377,0.009130,0.000000,0.000000,1.500000,1.498245,1.450688,1.500000,0.856419,0.715350,1.000000,2.000000,4.416504,-18.830566,0.000000,0.000000
2.9500,20646,240,0,0,0.001227,0.009035,0.000000,0.000000,1.500000,1.497298,1.450731,1.500000,0.859524,0.717850,1.000000,2.000000,4.416504,-18.830566,0.000000,0.000000
2.9600,20647,240,0,0,0.001281,0.009097,0.000000,0.000000,1.500000,1.499084,1.451435,1.500000,0.862630,0.720350,1.000000,2.000000,4.416504,-18.830566,0.000000,0.000000
2.9700,20648,240,0,0,0.001364,0.009371,0.000000,0.000000,1.500000,1.498803,1.452103,1.500000,0.865735,0.722849,1.000000,2.000000,4.416504,-18.830566,0.000000,0.000000
2.9800,20649,240,0,0,0.001294,0.009392,0.000000,0.000000,1.500000,1.497603,1.452246,1.500000,0.868841,0.725349,1.000000,2.000000,4.416504,-18.830566,0.000000,0.000000
2.9900,20650,240,0,0,0.001307,0.009858,0.000000,0.000000,1.500000,1.499937,1.452737,1.500000,0.871946,0.727849,1.000000,2.000000,4.416504,-18.830566,0.000000,0.000000
3.0000,20651,240,0,0,0.001212,0.009383,0.000000,0.000000,1.500000,1.499832,1.452723,1.500000,0.875051,0.730349,1.000000,2.000000,4.416504,-18.830566,0.000000,0.000000
3.0100,20652,240,0,0,0.001203,0.009159,0.000000,0.000000,1.500000,1.498318,1.453389,1.500000,0.878157,0.732849,1.000000,2.000000,4.416504,-18.830566,0.000000,0.000000
3.0200,20653,240,0,0,0.001550,0.009354,0.000000,0.000000,1.500000,1.499132,1.453852,1.500000,0.881262,0.735349,1.000000,2.000000,4.416504,-18.830566,0.000000,0.000000
3.0300,20654,240,0,0,0.001608,0.009187,0.000000,0.000000,1.500000,1.500000,1.453484,1.500000,0.884368,0.737848,1.000000,2.000000,4.416504,-18.830566,0.000000,0.000000
3.0400,20655,240,0,0,0.001886,0.009578,0.000000,0.000000,1.500000,1.500000,1.454108,1.500000,0.887473,0.740348,1.000000,2.000000,4.416504,-18.830566,0.000000,0.000000
3.0500,20656,240,0,0,0.001793,0.009768,0.000000,0.000000,1.500000,1.499215,1.453284,1.500000,0.890578,0.742848,1.000000,2.000000,4.416504,-18.830566,0.000000,0.000000
3.0600,20657,240,0,0,0.001576,0.010400,0.000000,0.000000,1.500000,1.500000,1.454035,1.500000,0.893684,0.745348,1.000000,2.000000,4.416504,-18.830566,0.000000,0.000000
3.0700,20658,240,0,0,0.001599,0.010572,0.000000,0.000000,1.500000,1.500000,1.454973,1.500000,0.896789,0.747848,1.000000,2.000000,4.416504,-18.830566,0.000000,0.000000
3.0800,20659,240,0,0,0.001569,0.010420,0.000000,0.000000,1.500000,1.497274,1.454480,1.500000,0.899895,0.750347,1.000000,2.000000,4.416504,-18.830566,0.000000,0.000000
3.0900,20660,240,0,0,0.001493,0.009658,0.000000,0.000000,1.500000,1.497375,1.454088,1.500000,0.903000,0.752847,1.000000,2.000000,4.416504,-18.830566,0.000000,0.000000
3.1000,20661,240,0,0,0.001346,0.009288,0.000000,0.000000,1.500000,1.498343,1.454121,1.500000,0.906105,0.755347,1.000000,2.000000,4.416504,-18.830566,0.000000,0.000000
3.1100,20662,240,0,0,0.001345,0.009710,0.000000,0.000000,1.500000,1.495985,1.455445,1.500000,0.909211,0.757847,1.000000,2.000000,4.416504,-18.830566,0.000000,0.000000
3.1200,20663,240,0,0,0.001716,0.009902,0.000000,0.000000,1.500000,1.494105,1.454603,1.500000,0.912316,0.760347,1.000000,2.000000,4.416504,-18.830566,0.000000,0.000000
3.1300,20664,240,0,0,0.001557,0.009764,0.000000,0.000000,1.500000,1.496177,1.456048,1.500000,0.915422,0.762847,1.000000,2.000000,4.416504,-18.830566,0.000000,0.000000
3.1400,20665,240,0,0,0.001541,0.009803,0.000000,0.000000,1.500000,1.496493,1.456713,1.500000,0.918527,0.765346,1.000000,2.000000,4.416504,-18.830566,0.000000,0.000000
3.1500,20666,240,0,0,0.001350,0.009821,0.000000,0.000000,1.500000,1.494694,1.456192,1.500000,0.921632,0.767846,1.000000,2.000000,4.416504,-18.830566,0.000000,0.000000
3.1600,20667,240,0,0,0.001410,0.010008,0.000000,0.000000,1.500000,1.497042,1.456819,1.500000,0.924738,0.770346,1.000000,2.000000,4.416504,-18.830566,0.000000,0.000000
3.1700,20668,240,0,0,0.001386,0.009880,0.000000,0.000000,1.500000,1.495313,1.457053,1.500000,0.927843,0.772846,1.000000,2.000000,4.416504,-18.830566,0.000000,0.000000
3.1800,20669,240,0,0,0.001215,0.009809,0.000000,0.000000,1.500000,1.496299,1.456831,1.500000,0.930949,0.775346,1.000000,2.000000,4.416504,-18.830566,0.000000,0.000000
3.1900,20670,240,0,0,0.001592,0.009942,0.000000,0.000000,1.500000,1.493218,1.456264,1.500000,0.934054,0.777845,1.000000,2.000000,4.416504,-18.830566,0.000000,0.000000
3.2000,20671,240,0,0,0.001736,0.010536,0.000000,0.000000,1.500000,1.493135,1.457013,1.500000,0.937159,0.780345,1.000000,2.000000,4.416504,-18.830566,0.000000,0.000000
3.2100,20672,240,0,0,0.001501,0.010392,0.000000,0.000000,1.500000,1.492147,1.456451,1.500000,0.940265,0.782845,1.000000,2.000000,4.416504,-18.830566,0.000000,0.000000
3.2200,20673,240,0,0,0.001306,0.010618,0.000000,0.000000,1.500000,1.490895,1.456879,1.500000,0.943370,0.785345,1.000000,2.000000,4.416504,-18.830566,0.000000,0.000000
3.2300,20674,240,0,0,0.001323,0.010373,0.000000,0.000000,1.500000,1.489395,1.456867,1.500000,0.946476,0.787845,1.000000,2.000000,4.416504,-18.808594,0.000000,0.000000
3.2400,20675,240,0,0,0.001277,0.010044,0.000000,0.000000,1.500000,1.488632,1.456554,1.500000,0.949581,0.790345,1.000000,2.000000,4.416504,-18.808594,0.000000,0.000000
3.2500,20676,240,0,0,0.001848,0.010313,0.000000,0.000000,1.500000,1.488450,1.457539,1.500000,0.952686,0.792844,1.000000,2.000000,4.416504,-18.808594,0.000000,0.000000
3.2600,20677,240,0,0,0.001947,0.010642,0.000000,0.000000,1.500000,1.486188,1.458788,1.500000,0.955792,0.795344,1.000000,2.000000,4.416504,-18.808594,0.000000,0.000000
3.2700,20678,240,0,0,0.001833,0.010887,0.000000,0.000000,1.500000,1.484288,1.459284,1.500000,0.958897,0.797844,1.000000,2.000000,4.416504,-18.808594,0.000000,0.000000
3.2800,20679,240,0,0,0.001620,0.010564,0.000000,0.000000,1.500000,1.483695,1.460077,1.500000,0.962003,0.800344,1.000000,2.000000,4.416504,-18.808594,0.000000,0.000000
3.2900,20680,240,0,0,0.001468,0.010547,0.000000,0.000000,1.500000,1.480266,1.460013,1.500000,0.965108,0.802844,1.000000,2.000000,4.416504,-18.808594,0.000000,0.000000
3.3000,20681,240,0,0,0.001727,0.010386,0.000000,0.000000,1.500000,1.476631,1.461455,1.500000,0.968213,0.805343,1.000000,2.000000,4.438477,-18.808594,0.000000,0.000000
3.3100,20682,240,0,0,0.001842,0.010171,0.000000,0.000000,1.500000,1.475952,1.461165,1.500000,0.971319,0.807843,1.000000,2.000000,4.438477,-18.786621,0.000000,0.000000
3.3200,20683,240,0,0,0.001838,0.009499,0.000000,0.000000,1.500000,1.474526,1.461557,1.500000,0.974424,0.810343,1.000000,2.000000,4.438477,-18.786621,0.000000,0.000000
3.3300,20684,240,0,0,0.001563,0.009495,0.000000,0.000000,1.500000,1.474262,1.461337,1.500000,0.977530,0.812843,1.000000,2.000000,4.438477,-18.786621,0.000000,0.000000
3.3400,20685,240,0,0,0.001572,0.009355,0.000000,0.000000,1.500000,1.474941,1.461390,1.500000,0.980635,0.815343,1.000000,2.000000,4.460449,-18.786621,0.000000,0.000000
3.3500,20687,240,0,0,0.001429,0.009412,0.000000,0.000000,1.500000,1.474415,1.462877,1.500000,0.986846,0.820342,1.000000,2.000000,4.460449,-18.764648,0.000000,0.000000
3.3600,20688,240,0,0,0.001414,0.009518,0.000000,0.000000,1.500000,1.472374,1.462953,1.500000,0.989951,0.822842,1.000000,2.000000,4.482422,-18.764648,0.000000,0.000000
3.3700,20689,240,0,0,0.001300,0.009531,0.000000,0.000000,1.500000,1.474150,1.462993,1.500000,0.993057,0.825342,1.000000,2.000000,4.482422,-18.764648,0.000000,0.000000
3.3800,20690,240,0,0,0.001297,0.009044,0.000000,0.000000,1.500000,1.474399,1.463298,1.500000,0.996162,0.827842,1.000000,2.000000,4.482422,-18.764648,0.000000,0.000000
3.3900,20691,240,0,0,0.001185,0.008790,0.000000,0.000000,1.500000,1.476843,1.463000,1.500000,0.999267,0.830342,1.000000,2.000000,4.482422,-18.764648,0.000000,0.000000
3.4000,20692,240,0,0,0.001198,0.008619,0.000000,0.000000,1.500000,1.478177,1.463554,1.500000,0.002373,0.832841,1.000000,2.000000,4.482422,-18.764648,0.000000,0.000000
3.4100,20693,240,0,0,0.001216,0.009188,0.000000,0.000000,1.500000,1.478113,1.463501,1.500000,0.005479,0.835341,1.000000,2.000000,4.482422,-18.764648,0.000000,0.000000
3.4200,20694,240,0,0,0.001235,0.009316,0.000000,0.000000,1.500000,1.474998,1.462651,1.500000,0.008584,0.837841,1.000000,2.000000,4.482422,-18.764648,0.000000,0.000000
3.4300,20695,240,0,0,0.001610,0.009212,0.000000,0.000000,1.500000,1.476118,1.462733,1.500000,0.011690,0.840341,1.000000,2.000000,4.460449,-18.786621,0.000000,0.000000
3.4400,20696,240,0,0,0.001708,0.009188,0.000000,0.000000,1.500000,1.477266,1.463969,1.500000,0.014795,0.842841,1.000000,2.000000,4.460449,-18.786621,0.000000,0.000000
3.4500,20697,240,0,0,0.001658,0.009397,0.000000,0.000000,1.500000,1.476905,1.464729,1.500000,0.017901,0.845341,1.000000,2.000000,4.438477,-18.786621,0.000000,0.000000
3.4600,20698,240,0,0,0.001568,0.009016,0.000000,0.000000,1.500000,1.477797,1.464746,1.500000,0.021007,0.847840,1.000000,2.000000,4.438477,-18.808594,0.000000,0.000000
3.4700,20699,240,0,0,0.001456,0.009173,0.000000,0.000000,1.500000,1.476389,1.464690,1.500000,0.024112,0.850340,1.000000,2.000000,4.438477,-18.808594,0.000000,0.000000
3.4800,20700,240,0,0,0.001493,0.009115,0.000000,0.000000,1.500000,1.477425,1.465088,1.500000,0.027218,0.852840,1.000000,2.000000,4.438477,-18.830566,0.000000,0.000000
3.4900,20701,240,0,0,0.001405,0.009250,0.000000,0.000000,1.500000,1.477501,1.465830,1.500000,0.030323,0.855340,1.000000,2.000000,4.416504,-18.830566,0.000000,0.000000
3.5000,20702,240,0,0,0.001433,0.009146,0.000000,0.000000,1.500000,1.479833,1.466162,1.500000,0.033429,0.857840,1.000000,2.000000,4.416504,-18.830566,0.000000,0.000000
3.5100,20703,240,0,0,0.001516,0.009628,0.000000,0.000000,1.500000,1.480146,1.467068,1.500000,0.036534,0.860339,1.000000,2.000000,4.416504,-18.830566,0.000000,0.000000
3.5200,20704,240,0,0,0.001650,0.009685,0.000000,0.000000,1.500000,1.480495,1.467360,1.500000,0.039640,0.862839,1.000000,2.000000,4.416504,-18.852539,0.000000,0.000000
3.5300,20705,240,0,0,0.001585,0.010229,0.000000,0.000000,1.500000,1.482903,1.467552,1.500000,0.042746,0.865339,1.000000,2.000000,4.416504,-18.852539,0.000000,0.000000
3.5400,20706,240,0,0,0.001419,0.009834,0.000000,0.000000,1.500000,1.485591,1.466912,1.500000,0.045851,0.867839,1.000000,2.000000,4.416504,-18.852539,0.000000,0.000000
3.5500,20707,240,0,0,0.001476,0.009416,0.000000,0.000000,1.500000,1.484515,1.465671,1.500000,0.048957,0.870339,1.000000,2.000000,4.416504,-18.852539,0.000000,0.000000
3.5600,20708,240,0,0,0.001506,0.010057,0.000000,0.000000,1.500000,1.484513,1.466940,1.500000,0.052062,0.872839,1.000000,2.000000,4.416504,-18.852539,0.000000,0.000000
3.5700,20709,240,0,0,0.001589,0.010045,0.000000,0.000000,1.500000,1.487368,1.466697,1.500000,0.055168,0.875338,1.000000,2.000000,4.394531,-18.852539,0.000000,0.000000
3.5800,20710,240,0,0,0.001879,0.009886,0.000000,0.000000,1.500000,1.487944,1.467905,1.500000,0.058274,0.877838,1.000000,2.000000,4.394531,-18.852539,0.000000,0.000000
3.5900,20711,240,0,0,0.001989,0.009889,0.000000,0.000000,1.500000,1.489908,1.467835,1.500000,0.061379,0.880338,1.000000,2.000000,4.394531,-18.874512,0.000000,0.000000
3.6000,20712,240,0,0,0.001716,0.009679,0.000000,0.000000,1.500000,1.492145,1.467688,1.500000,0.064485,0.882838,1.000000,2.000000,4.394531,-18.874512,0.000000,0.000000
3.6100,20713,240,0,0,0.001572,0.009195,0.000000,0.000000,1.500000,1.493102,1.467513,1.500000,0.067590,0.885338,1.000000,2.000000,4.394531,-18.874512,0.000000,0.000000
3.6200,20714,240,0,0,0.001441,0.009306,0.000000,0.000000,1.500000,1.492550,1.467577,1.500000,0.070696,0.887837,1.000000,2.000000,4.394531,-18.896484,0.000000,0.000000
3.6300,20715,240,0,0,0.001297,0.009025,0.000000,0.000000,1.500000,1.493630,1.466763,1.500000,0.073802,0.890337,1.000000,2.000000,4.372559,-18.896484,0.000000,0.000000
3.6400,20716,240,0,0,0.001290,0.009187,0.000000,0.000000,1.500000,1.495465,1.466314,1.500000,0.076907,0.892837,1.000000,2.000000,4.372559,-18.918457,0.000000,0.000000
3.6500,20717,240,0,0,0.001542,0.009203,0.000000,0.000000,1.500000,1.497849,1.465486,1.500000,0.080013,0.895337,1.000000,2.000000,4.350586,-18.918457,0.000000,0.000000
3.6600,20718,240,0,0,0.001821,0.008954,0.000000,0.000000,1.500000,1.495633,1.465491,1.500000,0.083119,0.897837,1.000000,2.000000,4.350586,-18.940430,0.000000,0.000000
3.6700,20719,240,0,0,0.001661,0.008530,0.000000,0.000000,1.500000,1.493744,1.463371,1.500000,0.086224,0.900337,1.000000,2.000000,4.328613,-18.962402,0.000000,0.000000
3.6800,20720,240,0,0,0.001792,0.008198,0.000000,0.000000,1.500000,1.493466,1.460352,1.500000,0.089330,0.902836,1.000000,2.000000,4.306641,-18.962402,0.000000,0.000000
3.6900,20721,240,0,0,0.001720,0.007956,0.000000,0.000000,1.500000,1.494862,1.457099,1.500000,0.092435,0.905336,1.000000,2.000000,4.284668,-18.984375,0.000000,0.000000
3.7000,20722,240,0,0,0.001627,0.008348,0.000000,0.000000,1.500000,1.491614,1.455820,1.500000,0.095541,0.907836,1.000000,2.000000,4.262695,-19.006348,0.000000,0.000000
3.7100,20723,240,0,0,0.001660,0.008614,0.000000,0.000000,1.500000,1.489960,1.453991,1.500000,0.098647,0.910336,1.000000,2.000000,4.240723,-19.028320,0.000000,0.000000
3.7200,20724,240,0,0,0.001599,0.008947,0.000000,0.000000,1.500000,1.488988,1.453037,1.500000,0.101752,0.912836,1.000000,2.000000,4.240723,-19.050293,0.000000,0.000000
3.7300,20725,240,0,0,0.001576,0.009191,0.000000,0.000000,1.500000,1.489264,1.451701,1.500000,0.104858,0.915335,1.000000,2.000000,4.218750,-19.050293,0.000000,0.000000
3.7400,20726,240,0,0,0.001522,0.009445,0.000000,0.000000,1.500000,1.488443,1.451440,1.500000,0.107964,0.917835,1.000000,2.000000,4.196777,-19.072266,0.000000,0.000000
3.7500,20727,240,0,0,0.001384,0.009050,0.000000,0.000000,1.500000,1.488227,1.450954,1.500000,0.111069,0.920335,1.000000,2.000000,4.174805,-19.094238,0.000000,0.000000
3.7600,20728,240,0,0,0.001412,0.009042,0.000000,0.000000,1.500000,1.487949,1.450962,1.500000,0.114175,0.922835,1.000000,2.000000,4.174805,-19.094238,0.000000,0.000000
3.7700,20729,240,0,0,0.001402,0.009882,0.000000,0.000000,1.500000,1.487705,1.450683,1.500000,0.117280,0.925335,1.000000,2.000000,4.152832,-19.116211,0.000000,0.000000
3.7800,20730,240,0,0,0.001632,0.009630,0.000000,0.000000,1.500000,1.486350,1.449297,1.500000,0.120386,0.927835,1.000000,2.000000,4.152832,-19.116211,0.000000,0.000000
3.7900,20731,240,0,0,0.001639,0.009593,0.000000,0.000000,1.500000,1.485015,1.447366,1.500000,0.123492,0.930334,1.000000,2.000000,4.130859,-19.138184,0.000000,0.000000
3.8000,20732,240,0,0,0.001608,0.009313,0.000000,0.000000,1.500000,1.483209,1.445411,1.500000,0.126597,0.932834,1.000000,2.000000,4.108887,-19.138184,0.000000,0.000000
3.8100,20733,240,0,0,0.001826,0.009633,0.000000,0.000000,1.500000,1.477762,1.443070,1.500000,0.129703,0.935334,1.000000,2.000000,4.108887,-19.160156,0.000000,0.000000
3.8200,20734,240,0,0,0.001686,0.009203,0.000000,0.000000,1.500000,1.476407,1.440857,1.500000,0.132808,0.937834,1.000000,2.000000,4.086914,-19.182129,0.000000,0.000000
3.8300,20735,240,0,0,0.001544,0.008719,0.000000,0.000000,1.500000,1.473151,1.439230,1.500000,0.135914,0.940334,1.000000,2.000000,4.064941,-19.204102,0.000000,0.000000
3.8400,20737,240,0,0,0.001482,0.009766,0.000000,0.000000,1.500000,1.470269,1.437006,1.500000,0.142125,0.945333,1.000000,2.000000,4.020996,-19.248047,0.000000,0.000000
3.8500,20738,240,0,0,0.001709,0.009542,0.000000,0.000000,1.500000,1.468070,1.435128,1.500000,0.145231,0.947833,1.000000,2.000000,3.999023,-19.270020,0.000000,0.000000
3.8600,20739,240,0,0,0.001611,0.009133,0.000000,0.000000,1.500000,1.468922,1.432991,1.500000,0.148336,0.950333,1.000000,2.000000,3.977051,-19.313965,0.000000,0.000000
3.8700,20740,240,0,0,0.001534,0.008696,0.000000,0.000000,1.500000,1.467646,1.432414,1.500000,0.151442,0.952833,1.000000,2.000000,3.955078,-19.335938,0.000000,0.000000
3.8800,20741,240,0,0,0.001643,0.009237,0.000000,0.000000,1.500000,1.467790,1.431909,1.500000,0.154547,0.955333,1.000000,2.000000,3.933105,-19.357910,0.000000,0.000000
3.8900,20742,240,0,0,0.001580,0.009023,0.000000,0.000000,1.500000,1.466309,1.433409,1.500000,0.157653,0.957832,1.000000,2.000000,3.911133,-19.379883,0.000000,0.000000
3.9000,20743,240,0,0,0.001794,0.008681,0.000000,0.000000,1.500000,1.462882,1.432860,1.500000,0.160758,0.960332,1.000000,2.000000,3.889160,-19.401855,0.000000,0.000000
3.9100,20744,240,0,0,0.001830,0.008570,0.000000,0.000000,1.500000,1.463215,1.432305,1.500000,0.163864,0.962832,1.000000,2.000000,3.845215,-19.445801,0.000000,0.000000
3.9200,20745,240,0,0,0.002969,0.008100,0.000000,0.000000,1.500000,1.465499,1.431809,1.500000,0.166969,0.965332,1.000000,2.000000,3.823242,-19.445801,0.000000,0.000000
3.9300,20746,240,0,0,0.003696,0.007947,0.000000,0.000000,1.500000,1.468993,1.431491,1.500000,0.170075,0.967832,1.000000,2.000000,3.779297,-19.423828,0.000000,0.000000
3.9400,20747,240,0,0,0.003675,0.007736,0.000000,0.000000,1.500000,1.471086,1.431568,1.500000,0.173181,0.970331,1.000000,2.000000,3.757324,-19.379883,0.000000,0.000000
3.9500,20748,240,0,0,0.004696,0.007305,0.000000,0.000000,1.500000,1.472683,1.430611,1.500000,0.176286,0.972831,1.000000,2.000000,3.735352,-19.357910,0.000000,0.000000
3.9600,20749,240,0,0,0.004756,0.007718,0.000000,0.000000,1.500000,1.475077,1.430995,1.500000,0.179392,0.975331,1.000000,2.000000,3.735352,-19.357910,0.000000,0.000000
3.9700,20750,240,0,0,0.003812,0.007585,0.000000,0.000000,1.500000,1.476882,1.431470,1.500000,0.182497,0.977831,1.000000,2.000000,3.735352,-19.335938,0.000000,0.000000
3.9800,20751,240,0,0,0.003550,0.007605,0.000000,0.000000,1.500000,1.478749,1.433341,1.500000,0.185603,0.980331,1.000000,2.000000,3.713379,-19.335938,0.000000,0.000000
3.9900,20752,240,0,0,0.004554,0.007596,0.000000,0.000000,1.500000,1.481189,1.432956,1.500000,0.188708,0.982831,1.000000,2.000000,3.691406,-19.335938,0.000000,0.000000
4.0000,20753,240,0,0,0.005906,0.007450,0.000000,0.000000,1.500000,1.482293,1.434258,1.500000,0.191814,0.985330,1.000000,2.000000,3.713379,-19.335938,0.000000,0.000000
4.0100,20754,240,0,0,0.006703,0.007110,0.000000,0.000000,1.500000,1.481481,1.436103,1.500000,0.194919,0.987830,1.000000,2.000000,3.713379,-19.335938,0.000000,0.000000
4.0200,20755,240,0,0,0.005571,0.007031,0.000000,0.000000,1.500000,1.481471,1.437957,1.500000,0.198025,0.990330,1.000000,2.000000,3.735352,-19.335938,0.000000,0.000000
4.0300,20756,240,0,0,0.004698,0.007505,0.000000,0.000000,1.500000,1.482240,1.439276,1.500000,0.201130,0.992830,1.000000,2.000000,3.801270,-19.335938,0.000000,0.000000
4.0400,20757,240,0,0,0.004741,0.007849,0.000000,0.000000,1.500000,1.480348,1.440896,1.500000,0.204236,0.995330,1.000000,2.000000,3.867188,-19.357910,0.000000,0.000000
4.0500,20758,240,0,0,0.006830,0.008147,0.000000,0.000000,1.500000,1.479414,1.442134,1.500000,0.207342,0.997829,1.000000,2.000000,3.955078,-19.357910,0.000000,0.000000
4.0600,20759,240,0,0,0.009821,0.008052,0.000000,0.000000,1.500000,1.479698,1.445773,1.500000,0.210447,0.000329,1.000000,2.000000,4.042969,-19.357910,0.000000,0.000000
4.0700,20760,240,0,0,0.011714,0.008320,0.000000,0.000000,1.500000,1.479530,1.450372,1.500000,0.213553,0.002829,1.000000,2.000000,4.196777,-19.357910,0.000000,0.000000
4.0800,20761,240,0,0,0.011902,0.008197,0.000000,0.000000,1.500000,1.477230,1.457412,1.500000,0.216658,0.005329,1.000000,2.000000,4.328613,-19.335938,0.000000,0.000000
4.0900,20762,240,0,0,0.009726,0.008805,0.000000,0.000000,1.500000,1.479683,1.464680,1.500000,0.219764,0.007829,1.000000,2.000000,4.504395,-19.313965,0.000000,0.000000
4.1000,20763,240,0,0,0.009101,0.009732,0.000000,0.000000,1.500000,1.478789,1.473321,1.500000,0.222869,0.010329,1.000000,2.000000,4.724121,-19.270020,0.000000,0.000000
4.1100,20764,240,0,0,0.012946,0.009946,0.000000,0.000000,1.500000,1.478804,1.483216,1.500000,0.225975,0.012829,1.000000,2.000000,5.009766,-19.248047,0.000000,0.000000
4.1200,20765,240,0,0,0.015934,0.010339,0.000000,0.000000,1.500000,1.480475,1.493431,1.500000,0.229080,0.015329,1.000000,2.000000,5.295410,-19.248047,0.000000,0.000000
4.1300,20766,240,0,0,0.015526,0.010273,0.000000,0.000000,1.500000,1.481149,1.500000,1.500000,0.232186,0.017829,1.000000,2.000000,5.668945,-19.248047,0.000000,0.000000
4.1400,20767,240,0,0,0.014330,0.010256,0.000000,0.000000,1.500000,1.482068,1.500000,1.500000,0.235292,0.020329,1.000000,2.000000,6.086426,-19.248047,0.000000,0.000000
4.1500,20768,240,0,0,0.017267,0.010554,0.000000,0.000000,1.500000,1.480373,1.500000,1.500000,0.238397,0.022829,1.000000,2.000000,6.591797,-19.270020,0.000000,0.000000
4.1600,20769,240,0,0,0.019147,0.010659,0.000000,0.000000,1.500000,1.476258,1.500000,1.500000,0.241503,0.025329,1.000000,2.000000,7.207031,-19.270020,0.000000,0.000000
4.1700,20770,240,0,0,0.025628,0.011034,0.010393,0.000000,1.500000,1.466903,1.500000,1.500000,0.244608,0.027829,1.000000,2.000000,7.932129,-19.270020,0.000000,0.000000
4.1800,20771,240,0,0,0.030601,0.011524,0.041425,0.000000,1.500000,1.447305,1.500000,1.500000,0.247714,0.030329,1.000000,2.000000,8.745117,-19.291992,0.000000,0.000000
4.1900,20772,240,0,0,0.030592,0.011421,0.067063,0.000000,1.387360,1.421079,1.500000,1.500000,0.250819,0.032829,1.000000,2.000000,9.689941,-19.291992,0.000000,0.000000
4.2000,20773,240,0,0,0.030339,0.011152,0.079535,0.000000,1.258948,1.392768,1.500000,1.500000,0.253925,0.035329,1.000000,2.000000,10.722656,-19.291992,0.000000,0.000000
4.2100,20774,240,0,0,0.035227,0.011035,0.098824,0.000000,1.140327,1.356867,1.500000,1.500000,0.257031,0.037829,1.000000,2.000000,11.843262,-19.270020,0.000000,0.000000
4.2200,20775,240,0,0,0.036218,0.011017,0.122127,0.000000,1.030585,1.309036,1.500000,1.500000,0.260136,0.040329,1.000000,2.000000,13.051758,-19.182129,0.000000,0.000000
4.2300,20776,240,0,0,0.041131,0.011181,0.142812,0.000000,0.933436,1.253994,1.500000,1.500000,0.263242,0.042829,1.000000,2.000000,14.326172,-19.006348,0.000000,0.000000
4.2400,20777,240,0,0,0.057827,0.010354,0.206663,0.000000,0.839415,1.203195,1.500000,1.500000,0.266348,0.045329,1.000000,2.000000,15.666504,-18.830566,0.000000,0.000000
4.2500,20778,240,0,0,0.066174,0.008715,0.292579,0.000000,0.756302,1.160614,1.500000,1.500000,0.269454,0.047829,1.000000,2.000000,17.006836,-18.698730,0.000000,0.000000
4.2600,20779,240,0,0,0.067948,0.007234,0.359354,0.000000,0.695075,1.128217,1.500000,1.500000,0.272559,0.050329,1.000000,2.000000,18.391113,-18.632812,0.000000,0.000000
4.2700,20780,240,0,0,0.073076,0.006003,0.410539,0.000000,0.645047,1.114216,1.500000,1.500000,0.275665,0.052829,1.000000,2.000000,19.775391,-18.610840,0.000000,0.000000
4.2800,20781,240,0,0,0.081948,0.007041,0.473304,0.000000,0.598711,1.105447,1.500000,1.500000,0.278771,0.055329,1.000000,2.000000,21.181641,-18.676758,0.000000,0.000000
4.2900,20782,240,0,0,0.084586,0.006920,0.531724,0.000000,0.554015,1.095955,1.500000,1.500000,0.281876,0.057829,1.000000,2.000000,22.565918,-18.720703,0.000000,0.000000
4.3000,20783,240,0,0,0.083935,0.005831,0.568760,0.000000,0.511413,1.090938,1.500000,1.500000,0.284982,0.060329,1.000000,2.000000,23.950195,-18.720703,0.000000,0.000000
4.3100,20784,240,0,0,0.080647,0.004691,0.581716,0.000000,0.469067,1.078833,1.500000,1.500000,0.288088,0.062829,1.000000,2.000000,25.356445,-18.676758,0.000000,0.000000
4.3200,20785,240,0,0,0.075000,0.004582,0.571804,0.000000,0.422032,1.068654,1.500000,1.500000,0.291193,0.065329,1.000000,2.000000,26.718750,-18.588867,0.000000,0.000000
4.3300,20787,240,0,0,0.083984,0.004132,0.549783,0.000000,0.343989,1.051848,1.500000,1.500000,0.297405,0.070329,2.000000,2.000000,29.443359,-18.237305,0.000000,0.000000
4.3400,20788,240,0,0,0.094784,0.003942,0.605589,0.000000,0.308686,1.043813,1.500000,1.500000,0.300511,0.072829,2.000000,2.000000,30.805664,-18.237305,0.000000,0.000000
4.3500,20789,240,0,0,0.098299,0.004178,0.662276,0.000000,0.269670,1.036182,1.500000,1.500000,0.303616,0.075329,2.000000,2.000000,32.145996,-18.281250,0.000000,0.000000
4.3600,20790,240,0,0,0.099560,0.003686,0.703774,0.000000,0.230003,1.030604,1.500000,1.500000,0.306722,0.077829,2.000000,2.000000,33.486328,-18.325195,0.000000,0.000000
4.3700,20791,240,0,0,0.097471,0.003054,0.727156,0.000000,0.190295,1.021713,1.500000,1.500000,0.309828,0.080329,2.000000,2.000000,34.848633,-18.391113,0.000000,0.000000
4.3800,20792,240,0,0,0.092471,0.002895,0.724554,0.000000,0.152688,1.012353,1.500000,1.500000,0.312933,0.082829,2.000000,2.000000,36.123047,-18.457031,0.000000,0.000000
4.3900,20793,240,0,0,0.089414,0.002772,0.708032,0.000000,0.120322,1.001115,1.500000,1.500000,0.316039,0.085329,2.000000,2.000000,37.375488,-18.522949,0.000000,0.000000
4.4000,20794,240,0,0,0.085252,0.002997,0.684680,0.000000,0.089951,0.990332,1.500000,1.500000,0.319145,0.087829,2.000000,2.000000,38.583984,-18.610840,0.000000,0.000000
4.4100,20795,240,0,0,0.078965,0.003138,0.649485,0.000000,0.060365,0.980527,1.500000,1.500000,0.322250,0.090329,2.000000,2.000000,39.792480,-18.698730,0.000000,0.000000
4.4200,20796,240,0,0,0.075887,0.003772,0.609107,0.000000,0.033857,0.972912,1.500000,1.500000,0.325356,0.092829,2.000000,2.000000,40.935059,-18.786621,0.000000,0.000000
4.4300,20797,240,0,0,0.076287,0.005053,0.582768,0.000000,0.006907,0.962602,1.500000,1.500000,0.328462,0.095329,2.000000,2.000000,42.077637,-18.896484,0.000000,0.000000
4.4400,20798,240,0,0,0.074105,0.006305,0.563276,0.000000,0.000000,0.955258,1.500000,1.500000,0.331568,0.097829,2.000000,2.000000,43.264160,-18.962402,0.000000,0.000000
4.4500,20799,240,0,0,0.071836,0.006557,0.541567,0.000000,0.000000,0.948342,1.500000,1.500000,0.334673,0.100329,2.000000,2.000000,44.428711,-19.050293,0.000000,0.000000
4.4600,20800,240,0,0,0.070343,0.005486,0.522128,0.000000,0.000000,0.941941,1.500000,1.500000,0.337779,0.102829,2.000000,2.000000,45.549316,-19.116211,0.000000,0.000000
4.4700,20801,240,0,0,0.067174,0.004422,0.501783,0.000000,0.000000,0.931290,1.500000,1.500000,0.340885,0.105329,2.000000,2.000000,46.625977,-19.182129,0.000000,0.000000
4.4800,20802,240,0,0,0.061776,0.004703,0.471948,0.000000,0.000000,0.922796,1.500000,1.500000,0.343990,0.107829,2.000000,2.000000,47.680664,-19.248047,0.000000,0.000000
4.4900,20803,240,0,0,0.055444,0.006590,0.430582,0.000000,0.000000,0.915386,1.500000,1.500000,0.347096,0.110329,2.000000,2.000000,48.691406,-19.313965,0.000000,0.000000
4.5000,20804,240,0,0,0.048232,0.008929,0.379045,0.000000,0.000000,0.908814,1.500000,1.500000,0.350202,0.112829,2.000000,2.000000,49.702148,-19.379883,0.000000,0.000000
4.5100,20805,240,0,0,0.041112,0.010680,0.320124,0.000000,0.000000,0.899245,1.500000,1.500000,0.353307,0.115329,2.000000,2.000000,50.646973,-19.445801,0.000000,0.000000
4.5200,20806,240,0,0,0.034645,0.013526,0.258408,0.000000,0.000000,0.892373,1.500000,1.500000,0.356413,0.117829,2.000000,2.000000,51.547852,-19.511719,0.000000,0.000000
4.5300,20807,240,0,0,0.028495,0.017463,0.197146,0.000000,0.000000,0.887502,1.500000,1.500000,0.359519,0.120329,2.000000,2.000000,52.360840,-19.577637,0.000000,0.000000
4.5400,20808,240,0,0,0.024094,0.022099,0.140157,0.001474,0.000000,0.878701,1.500000,1.500000,0.362625,0.122829,2.000000,2.000000,53.085938,-19.643555,0.000000,0.000000
4.5500,20809,240,0,0,0.021563,0.025648,0.092849,0.010025,0.000000,0.870019,1.500000,1.500000,0.365730,0.125329,2.000000,2.000000,53.701172,-19.687500,0.000000,0.000000
4.5600,20810,240,0,0,0.022248,0.028676,0.062781,0.021893,0.000000,0.860055,1.500000,1.500000,0.368836,0.127829,2.000000,2.000000,54.206543,-19.731445,0.000000,0.000000
4.5700,20811,240,0,0,0.025001,0.030887,0.051806,0.033928,0.000000,0.850662,1.500000,1.500000,0.371942,0.130329,2.000000,2.000000,54.624023,-19.753418,0.000000,0.000000
4.5800,20812,240,0,0,0.029615,0.033678,0.060876,0.046905,0.000000,0.838623,1.500000,1.500000,0.375047,0.132829,2.000000,2.000000,54.975586,-19.775391,0.000000,0.000000
4.5900,20813,240,0,0,0.035338,0.034729,0.087009,0.058410,0.000000,0.827538,1.499154,1.500000,0.378153,0.135329,2.000000,2.000000,55.217285,-19.775391,0.000000,0.000000
4.6000,20814,240,0,0,0.039392,0.033832,0.121399,0.065245,0.000000,0.815713,1.483829,1.500000,0.381259,0.137829,2.000000,2.000000,55.305176,-19.753418,0.000000,0.000000
4.6100,20815,240,0,0,0.041789,0.031288,0.154507,0.065087,0.000000,0.802687,1.467055,1.500000,0.384364,0.140328,2.000000,2.000000,55.349121,-19.753418,0.000000,0.000000
4.6200,20816,240,0,0,0.042230,0.028452,0.178223,0.059311,0.000000,0.788942,1.448793,1.500000,0.387470,0.142828,2.000000,2.000000,55.349121,-19.753418,0.000000,0.000000
4.6300,20817,240,0,0,0.041916,0.024853,0.192602,0.048886,0.000000,0.774776,1.430099,1.500000,0.390576,0.145328,2.000000,2.000000,55.305176,-19.775391,0.000000,0.000000
4.6400,20818,240,0,0,0.040935,0.021246,0.198334,0.035025,0.000000,0.755165,1.412164,1.500000,0.393682,0.147828,2.000000,2.000000,55.239258,-19.797363,0.000000,0.000000
4.6500,20819,240,0,0,0.039784,0.016767,0.196924,0.021159,0.000000,0.742234,1.396917,1.500000,0.396787,0.150328,2.000000,2.000000,55.085449,-19.841309,0.000000,0.000000
4.6600,20820,240,0,0,0.039033,0.013004,0.193292,0.012669,0.000000,0.728687,1.384160,1.500000,0.399893,0.152828,2.000000,2.000000,54.821777,-19.907227,0.000000,0.000000
4.6700,20821,240,0,0,0.036596,0.011905,0.184473,0.007585,0.000000,0.717202,1.372342,1.500000,0.402999,0.155328,2.000000,2.000000,54.426270,-19.973145,0.000000,0.000000
4.6800,20822,240,0,0,0.032472,0.010988,0.165978,0.004541,0.000000,0.703899,1.359303,1.500000,0.406104,0.157828,2.000000,2.000000,53.942871,-20.083008,0.000000,0.000000
4.6900,20823,240,0,0,0.027149,0.008437,0.135611,0.002719,0.000000,0.691110,1.350230,1.500000,0.409210,0.160328,2.000000,2.000000,53.437500,-20.192871,0.000000,0.000000
4.7000,20824,240,0,0,0.022254,0.007526,0.097598,0.001628,0.000000,0.677758,1.341227,1.500000,0.412316,0.162828,2.000000,2.000000,52.844238,-20.324707,0.000000,0.000000
4.7100,20825,240,0,0,0.017422,0.006180,0.059609,0.000975,0.000000,0.664501,1.336381,1.500000,0.415421,0.165328,2.000000,2.000000,52.250977,-20.456543,0.000000,0.000000
4.7200,20826,240,0,0,0.016417,0.005484,0.035690,0.000584,0.000000,0.649514,1.331656,1.500000,0.418527,0.167828,2.000000,2.000000,51.679688,-20.588379,0.000000,0.000000
4.7300,20827,240,0,0,0.017363,0.006411,0.021369,0.000349,0.000000,0.636356,1.328158,1.500000,0.421633,0.170328,2.000000,2.000000,51.086426,-20.720215,0.000000,0.000000
4.7400,20828,240,0,0,0.016542,0.008107,0.012794,0.000209,0.000000,0.620373,1.325035,1.500000,0.424739,0.172828,2.000000,2.000000,50.493164,-20.852051,0.000000,0.000000
4.7500,20829,240,0,0,0.014456,0.009661,0.007660,0.000125,0.000000,0.604522,1.321783,1.500000,0.427844,0.175328,2.000000,2.000000,49.965820,-20.983887,0.000000,0.000000
4.7600,20830,240,0,0,0.011953,0.008950,0.004587,0.000075,0.000000,0.588226,1.322517,1.500000,0.430950,0.177828,2.000000,2.000000,49.394531,-21.115723,0.000000,0.000000
4.7700,20831,240,0,0,0.012808,0.007510,0.002746,0.000045,0.000000,0.572376,1.318041,1.500000,0.434056,0.180328,2.000000,2.000000,48.867188,-21.225586,0.000000,0.000000
4.7800,20832,240,0,0,0.015703,0.006450,0.001644,0.000027,0.000000,0.559026,1.315115,1.500000,0.437161,0.182828,2.000000,2.000000,48.383789,-21.335449,0.000000,0.000000
4.7900,20833,240,0,0,0.018195,0.006423,0.000984,0.000016,0.000000,0.546515,1.311678,1.500000,0.440267,0.185328,2.000000,2.000000,47.966309,-21.445312,0.000000,0.000000
4.8000,20834,240,0,0,0.020008,0.005926,0.000594,0.000010,0.000000,0.533856,1.306865,1.500000,0.443373,0.187828,2.000000,2.000000,47.570801,-21.533203,0.000000,0.000000
4.8100,20835,240,0,0,0.021260,0.005569,0.003467,0.000006,0.000000,0.521383,1.301486,1.500000,0.446478,0.190328,2.000000,2.000000,47.153320,-21.643066,0.000000,0.000000
4.8200,20837,240,0,0,0.024208,0.004020,0.017702,0.000002,0.000000,0.499017,1.281636,1.500000,0.452690,0.195328,2.000000,2.000000,46.472168,-21.818848,0.000000,0.000000
4.8300,20838,240,0,0,0.026441,0.003572,0.032430,0.000001,0.000000,0.486438,1.273988,1.500000,0.455796,0.197828,2.000000,2.000000,46.120605,-21.906738,0.000000,0.000000
4.8400,20839,240,0,0,0.028968,0.003149,0.049847,0.000001,0.000000,0.475060,1.264476,1.500000,0.458901,0.200328,2.000000,2.000000,45.769043,-22.016602,0.000000,0.000000
4.8500,20840,240,0,0,0.031411,0.002797,0.069978,0.000000,0.000000,0.462483,1.253690,1.500000,0.462007,0.202828,2.000000,2.000000,45.395508,-22.104492,0.000000,0.000000
4.8600,20841,240,0,0,0.032892,0.002986,0.089902,0.000000,0.000000,0.449155,1.240444,1.500000,0.465113,0.205328,2.000000,2.000000,44.978027,-22.214355,0.000000,0.000000
4.8700,20842,240,0,0,0.032394,0.003067,0.103643,0.000000,0.000000,0.440188,1.228799,1.500000,0.468218,0.207828,2.000000,2.000000,44.472656,-22.324219,0.000000,0.000000
4.8800,20843,240,0,0,0.031426,0.002695,0.107889,0.000000,0.000000,0.432460,1.216393,1.500000,0.471324,0.210328,2.000000,2.000000,43.989258,-22.412109,0.000000,0.000000
4.8900,20844,240,0,0,0.030730,0.002521,0.106947,0.000000,0.000000,0.395637,1.202327,1.500000,0.474430,0.212828,2.000000,2.000000,43.417969,-22.521973,0.000000,0.000000
4.9000,20845,240,0,0,0.029148,0.002842,0.102631,0.000000,0.000000,0.292905,1.186971,1.500000,0.477535,0.215328,3.000000,2.000000,42.758789,-22.631836,0.000000,0.000000
4.9100,20846,240,0,0,0.028567,0.003924,0.095635,0.000000,0.000000,0.192972,1.172133,1.500000,0.480641,0.217827,3.000000,2.000000,42.077637,-22.719727,0.000000,0.000000
4.9200,20847,240,0,0,0.026960,0.003818,0.087376,0.000000,0.000000,0.139742,1.156601,1.500000,0.483747,0.220327,3.000000,2.000000,41.330566,-22.807617,0.000000,0.000000
4.9300,20848,240,0,0,0.023761,0.003688,0.071838,0.000000,0.000000,0.121428,1.139029,1.500000,0.486853,0.222827,3.000000,2.000000,40.605469,-22.917480,0.000000,0.000000
4.9400,20849,240,0,0,0.020344,0.003855,0.049699,0.000000,0.000000,0.128143,1.117187,1.500000,0.489958,0.225327,3.000000,2.000000,40.012207,-23.027344,0.000000,0.000000
4.9500,20850,240,0,0,0.017204,0.003773,0.029785,0.000000,0.000000,0.169691,1.090876,1.500000,0.493064,0.227827,3.000000,2.000000,39.572754,-23.159180,0.000000,0.000000
4.9600,20851,240,0,0,0.012987,0.003745,0.017833,0.000000,0.000000,0.231432,1.062868,1.500000,0.496170,0.230327,3.000000,2.000000,39.375000,-23.291016,0.000000,0.000000
4.9700,20852,240,0,0,0.013006,0.004344,0.010677,0.000000,0.000000,0.297666,1.029075,1.500000,0.499275,0.232827,3.000000,2.000000,39.309082,-23.422852,0.000000,0.000000
4.9800,20853,240,0,0,0.014730,0.005019,0.006393,0.000000,0.073966,0.379149,0.989106,1.500000,0.502381,0.235327,0.000000,2.000000,39.287109,-23.532715,0.000000,0.000000
4.9900,20854,240,0,0,0.014101,0.006354,0.003828,0.000000,0.176476,0.504380,0.952703,1.500000,0.505486,0.237827,0.000000,2.000000,39.287109,-23.642578,0.000000,0.000000
5.0000,20855,240,0,0,0.017937,0.005322,0.002292,0.000000,0.259866,0.651656,0.919613,1.500000,0.508592,0.240327,0.000000,2.000000,39.287109,-23.730469,0.000000,0.000000
5.0100,20856,240,0,0,0.020272,0.004932,0.001732,0.000000,0.321012,0.813064,0.888557,1.500000,0.511697,0.242827,0.000000,2.000000,39.177246,-23.818359,0.000000,0.000000
5.0200,20857,240,0,0,0.021503,0.004139,0.002509,0.000000,0.375715,0.975758,0.854099,1.500000,0.514802,0.245327,0.000000,2.000000,38.693848,-23.862305,0.000000,0.000000
5.0300,20858,240,0,0,0.037861,0.003751,0.041341,0.000000,0.438476,1.123686,0.816022,1.500000,0.517908,0.247827,0.000000,2.000000,37.880859,-23.906250,0.000000,0.000000
5.0400,20859,240,0,0,0.053506,0.003591,0.131798,0.000000,0.512089,1.257582,0.781287,1.500000,0.001000,0.250327,1.000000,2.000000,37.023926,-23.928223,0.000000,0.000000
5.0500,20860,240,0,0,0.071520,0.003474,0.246110,0.000000,0.606655,1.374402,0.746331,1.500000,0.003500,0.252827,1.000000,2.000000,36.166992,-23.928223,0.000000,0.000000
5.0600,20861,240,0,0,0.099218,0.006015,0.410938,0.000000,0.704977,1.483727,0.712767,1.500000,0.006000,0.255327,1.000000,2.000000,35.332031,-23.972168,0.000000,0.000000
5.0700,20862,240,0,0,0.119942,0.009049,0.605488,0.000000,0.807048,1.500000,0.679348,1.500000,0.008500,0.257827,1.000000,2.000000,34.541016,-23.994141,0.000000,0.000000
5.0800,20863,240,0,0,0.130012,0.012401,0.776099,0.000000,0.902244,1.500000,0.643966,1.500000,0.011000,0.260328,1.000000,2.000000,33.881836,-23.950195,0.000000,0.000000
5.0900,20864,240,0,0,0.132168,0.015097,0.899848,0.000000,0.988385,1.500000,0.607729,1.500000,0.013500,0.262828,1.000000,2.000000,33.310547,-23.796387,0.000000,0.000000
5.1000,20865,240,0,0,0.127445,0.014873,0.965050,0.000000,1.059592,1.500000,0.569647,1.500000,0.016000,0.265328,1.000000,2.000000,32.783203,-23.620605,0.000000,0.000000
5.1100,20866,240,0,0,0.119305,0.012877,0.976671,0.000000,1.115608,1.500000,0.532038,1.500000,0.018500,0.267828,1.000000,2.000000,32.343750,-23.269043,0.000000,0.000000
5.1200,20867,240,0,0,0.111826,0.010172,0.952694,0.000000,1.159412,1.500000,0.499462,1.500000,0.021000,0.270328,1.000000,2.000000,31.816406,-22.851562,0.000000,0.000000
5.1300,20868,240,0,0,0.103318,0.010712,0.908630,0.000000,1.188595,1.500000,0.465791,1.500000,0.023500,0.272828,1.000000,2.000000,31.201172,-22.346191,0.000000,0.000000
5.1400,20869,240,0,0,0.094978,0.016025,0.847683,0.000000,1.217113,1.500000,0.435273,1.500000,0.026000,0.275328,1.000000,2.000000,30.563965,-21.818848,0.000000,0.000000
5.1500,20870,240,0,0,0.086567,0.020615,0.779389,0.000199,1.241198,1.500000,0.405787,1.500000,0.028500,0.277828,1.000000,2.000000,29.838867,-21.247559,0.000000,0.000000
5.1600,20871,240,0,0,0.080148,0.025131,0.708832,0.007101,1.266250,1.500000,0.376470,1.500000,0.031000,0.280328,1.000000,2.000000,29.069824,-20.610352,0.000000,0.000000
5.1700,20872,240,0,0,0.077242,0.029208,0.651336,0.020356,1.289961,1.500000,0.345801,1.500000,0.033500,0.282829,1.000000,2.000000,28.278809,-19.973145,0.000000,0.000000
5.1800,20873,240,0,0,0.073034,0.029564,0.602446,0.032555,1.312102,1.500000,0.310619,1.500000,0.036000,0.285329,1.000000,2.000000,27.509766,-19.335938,0.000000,0.000000
5.1900,20874,240,0,0,0.070473,0.028671,0.560294,0.038734,1.337831,1.500000,0.273106,1.500000,0.038500,0.287829,1.000000,2.000000,26.740723,-18.654785,0.000000,0.000000
5.2000,20875,240,0,0,0.067227,0.027743,0.524701,0.039981,1.359231,1.500000,0.238006,1.500000,0.041000,0.290329,1.000000,2.000000,25.949707,-17.951660,0.000000,0.000000
5.2100,20876,240,0,0,0.062473,0.027777,0.486420,0.040063,1.372777,1.500000,0.205842,1.492352,0.043500,0.292829,1.000000,2.000000,25.158691,-17.270508,0.000000,0.000000
5.2200,20877,240,0,0,0.058031,0.027489,0.445948,0.039897,1.383831,1.500000,0.173580,1.466606,0.046000,0.295329,1.000000,2.000000,24.367676,-16.611328,0.000000,0.000000
5.2300,20878,240,0,0,0.052663,0.026629,0.402959,0.038949,1.386548,1.500000,0.140156,1.446333,0.048500,0.297829,1.000000,2.000000,23.510742,-15.930176,0.000000,0.000000
5.2400,20879,240,0,0,0.048680,0.025571,0.357707,0.035170,1.387190,1.500000,0.108203,1.427055,0.051000,0.300329,1.000000,2.000000,22.653809,-15.292969,0.000000,0.000000
5.2500,20880,240,0,0,0.045623,0.027012,0.318696,0.034376,1.384476,1.500000,0.077102,1.403586,0.053500,0.302830,1.000000,2.000000,21.774902,-14.677734,0.000000,0.000000
5.2600,20881,240,0,0,0.041529,0.027031,0.281082,0.035640,1.371567,1.500000,0.046265,1.362049,0.056000,0.305330,1.000000,2.000000,20.852051,-14.084473,0.000000,0.000000
5.2700,20882,240,0,0,0.037344,0.025659,0.242375,0.034477,1.357681,1.500000,0.014351,1.322257,0.058500,0.307830,1.000000,2.000000,19.929199,-13.447266,0.000000,0.000000
5.2800,20883,240,0,0,0.033749,0.024891,0.204012,0.031601,1.340899,1.500000,0.000000,1.293650,0.061000,0.310330,1.000000,2.000000,19.006348,-12.832031,0.000000,0.000000
5.2900,20884,240,0,0,0.029536,0.022786,0.165918,0.026665,1.323455,1.500000,0.000000,1.272244,0.063500,0.312830,1.000000,2.000000,18.083496,-12.150879,0.000000,0.000000
5.3000,20885,240,0,0,0.025006,0.020565,0.125566,0.018942,1.308231,1.500000,0.000000,1.251309,0.066000,0.315330,1.000000,2.000000,17.182617,-11.469727,0.000000,0.000000
5.3100,20887,240,0,0,0.017008,0.015947,0.050902,0.006835,1.287137,1.500000,0.000000,1.186823,0.071000,0.320330,1.000000,2.000000,15.402832,-9.975586,0.000000,0.000000
5.3200,20888,240,0,0,0.014182,0.014063,0.030477,0.004092,1.277119,1.500000,0.000000,1.156468,0.073500,0.322830,1.000000,2.000000,14.545898,-9.206543,0.000000,0.000000
5.3300,20889,240,0,0,0.014219,0.012085,0.018248,0.002450,1.268895,1.500000,0.000000,1.130466,0.076000,0.325331,1.000000,2.000000,13.732910,-8.437500,0.000000,0.000000
5.3400,20890,240,0,0,0.013860,0.010355,0.010926,0.001467,1.258402,1.500000,0.000000,1.105910,0.078500,0.327831,1.000000,2.000000,12.963867,-7.646484,0.000000,0.000000
5.3500,20891,240,0,0,0.012570,0.009071,0.006542,0.000878,1.242826,1.500000,0.000000,1.091186,0.081000,0.330331,1.000000,2.000000,12.194824,-6.877441,0.000000,0.000000
5.3600,20892,240,0,0,0.010160,0.007079,0.003917,0.000526,1.239231,1.500000,0.000000,1.067265,0.083500,0.332831,1.000000,2.000000,11.513672,-6.108398,0.000000,0.000000
5.3700,20893,240,0,0,0.008307,0.007146,0.002345,0.000315,1.231300,1.500000,0.000000,1.045776,0.086000,0.335331,1.000000,2.000000,10.854492,-5.383301,0.000000,0.000000
5.3800,20894,240,0,0,0.009948,0.007297,0.001404,0.000189,1.230153,1.500000,0.000000,1.045666,0.088500,0.337831,1.000000,2.000000,10.217285,-4.636230,0.000000,0.000000
5.3900,20895,240,0,0,0.012830,0.013573,0.000841,0.000113,1.230670,1.500000,0.000000,1.050312,0.091000,0.340331,1.000000,2.000000,9.624023,-3.889160,0.000000,0.000000
5.4000,20896,240,0,0,0.012896,0.018726,0.000503,0.000068,1.227541,1.500000,0.000000,1.052439,0.093500,0.342831,1.000000,2.000000,9.030762,-3.098145,0.000000,0.000000
5.4100,20897,240,0,0,0.012574,0.021348,0.000301,0.001061,1.225607,1.500000,0.000000,1.056091,0.096000,0.345332,1.000000,2.000000,8.437500,-2.241211,0.000000,0.000000
5.4200,20898,240,0,0,0.012656,0.022595,0.000180,0.005079,1.225208,1.500000,0.000000,1.053958,0.098500,0.347832,1.000000,2.000000,7.866211,-1.318359,0.000000,0.000000
5.4300,20899,240,0,0,0.011856,0.022806,0.000108,0.008839,1.223748,1.500000,0.000000,1.050655,0.101000,0.350332,1.000000,2.000000,7.338867,-0.351562,0.000000,0.000000
5.4400,20900,240,0,0,0.011166,0.021596,0.000065,0.009906,1.220953,1.500000,0.000000,1.045904,0.103500,0.352832,1.000000,2.000000,6.833496,0.637207,0.000000,0.000000
5.4500,20901,240,0,0,0.011585,0.020522,0.000039,0.008468,1.205605,1.500000,0.000000,1.040967,0.106000,0.355332,1.000000,2.000000,6.394043,1.691895,0.000000,0.000000
5.4600,20902,240,0,0,0.012454,0.018430,0.000023,0.005126,1.192427,1.500000,0.000000,1.037771,0.108499,0.357832,1.000000,2.000000,5.998535,2.746582,0.000000,0.000000
5.4700,20903,240,0,0,0.012979,0.015918,0.000014,0.003069,1.177323,1.500000,0.000000,1.029747,0.110999,0.360332,1.000000,2.000000,5.625000,3.801270,0.000000,0.000000
5.4800,20904,240,0,0,0.013317,0.012309,0.000008,0.001838,1.164569,1.500000,0.000000,1.020238,0.113499,0.362832,1.000000,2.000000,5.229492,4.833984,0.000000,0.000000
5.4900,20905,240,0,0,0.015688,0.009753,0.000005,0.001100,1.150890,1.500000,0.000000,1.010537,0.115999,0.365332,1.000000,2.000000,4.877930,5.844727,0.000000,0.000000
5.5000,20906,240,0,0,0.016404,0.007771,0.000003,0.000659,1.136365,1.500000,0.000000,1.001663,0.118499,0.367833,1.000000,2.000000,4.570312,6.833496,0.000000,0.000000
5.5100,20907,240,0,0,0.015038,0.006499,0.000002,0.000394,1.122893,1.500000,0.000000,0.989529,0.120999,0.370333,1.000000,2.000000,4.328613,7.756348,0.000000,0.000000
5.5200,20908,240,0,0,0.012743,0.005131,0.000001,0.000236,1.110871,1.500000,0.000000,0.980299,0.123499,0.372833,1.000000,2.000000,4.108887,8.635254,0.000000,0.000000
5.5300,20909,240,0,0,0.010415,0.004059,0.000001,0.000141,1.099549,1.500000,0.000000,0.970249,0.125999,0.375333,1.000000,2.000000,3.933105,9.470215,0.000000,0.000000
5.5400,20910,240,0,0,0.009138,0.003903,0.000000,0.000085,1.091505,1.500000,0.000000,0.962422,0.128499,0.377833,1.000000,2.000000,3.823242,10.261230,0.000000,0.000000
5.5500,20911,240,0,0,0.007628,0.003709,0.000000,0.000051,1.083265,1.500000,0.000000,0.954822,0.130999,0.380333,1.000000,2.000000,3.691406,11.052246,0.000000,0.000000
5.5600,20912,240,0,0,0.006460,0.003876,0.000000,0.000030,1.078543,1.500000,0.000000,0.949143,0.133499,0.382833,1.000000,2.000000,3.471680,11.821289,0.000000,0.000000
5.5700,20913,240,0,0,0.006489,0.004226,0.000000,0.000018,1.072158,1.500000,0.000000,0.943982,0.135999,0.385333,1.000000,2.000000,3.186035,12.612305,0.000000,0.000000
5.5800,20914,240,0,0,0.006186,0.004893,0.000000,0.000011,1.067326,1.500000,0.000000,0.939783,0.138499,0.387834,1.000000,2.000000,2.878418,13.359375,0.000000,0.000000
5.5900,20915,240,0,0,0.006680,0.006023,0.000000,0.000007,1.065459,1.500000,0.000000,0.937412,0.140999,0.390334,1.000000,2.000000,2.526855,14.106445,0.000000,0.000000
5.6000,20916,240,0,0,0.006911,0.007135,0.000000,0.000004,1.058860,1.500000,0.000000,0.933835,0.143499,0.392834,1.000000,2.000000,2.131348,14.853516,0.000000,0.000000
5.6100,20917,240,0,0,0.006199,0.009120,0.000000,0.000002,1.054802,1.500000,0.000000,0.929647,0.145999,0.395334,1.000000,2.000000,1.691895,15.556641,0.000000,0.000000
5.6200,20918,240,0,0,0.006740,0.010313,0.000000,0.000001,1.047789,1.500000,0.000000,0.927062,0.148499,0.397834,1.000000,2.000000,1.230469,16.259766,0.000000,0.000000
5.6300,20919,240,0,0,0.007602,0.011970,0.000000,0.000001,1.044946,1.500000,0.000000,0.927978,0.150999,0.400334,1.000000,2.000000,0.769043,16.962891,0.000000,0.000000
5.6400,20920,240,0,0,0.007304,0.012515,0.000000,0.000001,1.033134,1.500000,0.000000,0.927790,0.153499,0.402834,1.000000,2.000000,0.307617,17.622070,0.000000,0.000000
5.6500,20921,240,0,0,0.007093,0.012019,0.000000,0.000000,1.017457,1.500000,0.000000,0.927492,0.155999,0.405334,1.000000,2.000000,-0.131836,18.215332,0.000000,0.000000
5.6600,20922,240,0,0,0.007339,0.011911,0.000000,0.000000,1.005046,1.500000,0.000000,0.928329,0.158499,0.407834,1.000000,2.000000,-0.571289,18.742676,0.000000,0.000000
5.6700,20923,240,0,0,0.007316,0.011809,0.000000,0.000000,0.988806,1.500000,0.000000,0.928652,0.160999,0.410335,1.000000,2.000000,-0.944824,19.182129,0.000000,0.000000
5.6800,20924,240,0,0,0.007273,0.011243,0.000000,0.000000,0.968630,1.500000,0.000000,0.928939,0.163499,0.412835,1.000000,2.000000,-1.296387,19.533691,0.000000,0.000000
5.6900,20925,240,0,0,0.006815,0.010330,0.000000,0.000000,0.945288,1.500000,0.000000,0.930170,0.165999,0.415335,1.000000,2.000000,-1.582031,19.797363,0.000000,0.000000
5.7000,20926,240,0,0,0.005777,0.009754,0.000000,0.000000,0.924600,1.500000,0.000000,0.930994,0.168499,0.417835,1.000000,2.000000,-1.845703,19.995117,0.000000,0.000000
5.7100,20927,240,0,0,0.004963,0.008176,0.000000,0.000000,0.902830,1.500000,0.000000,0.932516,0.170999,0.420335,1.000000,2.000000,-2.109375,19.995117,0.000000,0.000000
5.7200,20928,240,0,0,0.005258,0.006570,0.000000,0.000000,0.878443,1.500000,0.000000,0.931881,0.173499,0.422835,1.000000,2.000000,-2.351074,19.929199,0.000000,0.000000
5.7300,20929,240,0,0,0.005923,0.005044,0.000000,0.000000,0.856267,1.500000,0.000000,0.928463,0.175999,0.425335,1.000000,2.000000,-2.636719,19.841309,0.000000,0.000000
5.7400,20930,240,0,0,0.006679,0.004380,0.000000,0.000000,0.829793,1.500000,0.000000,0.924070,0.178499,0.427835,1.000000,2.000000,-2.988281,19.753418,0.000000,0.000000
5.7500,20931,240,0,0,0.008136,0.004321,0.000000,0.000000,0.805290,1.500000,0.000000,0.922017,0.180999,0.430335,1.000000,2.000000,-3.339844,19.643555,0.000000,0.000000
5.7600,20932,240,0,0,0.015686,0.004740,0.000000,0.000000,0.783237,1.500000,0.000000,0.920022,0.183499,0.432836,1.000000,2.000000,-3.713379,19.533691,0.000000,0.000000
5.7700,20933,240,0,0,0.019229,0.008832,0.000000,0.000000,0.758357,1.500000,0.000000,0.917181,0.185998,0.435336,1.000000,2.000000,-4.086914,19.467773,0.000000,0.000000
5.7800,20934,240,0,0,0.019450,0.011866,0.000000,0.000000,0.733852,1.500000,0.000000,0.915492,0.188498,0.437836,1.000000,2.000000,-4.416504,19.401855,0.000000,0.000000
5.7900,20935,240,0,0,0.019094,0.014515,0.000000,0.000000,0.708965,1.500000,0.000000,0.897109,0.190998,0.440336,1.000000,2.000000,-4.768066,19.204102,0.000000,0.000000
5.8000,20937,240,0,0,0.022082,0.018959,0.001637,0.000000,0.675052,1.500000,0.000000,0.821864,0.195998,0.445336,1.000000,2.000000,-5.339355,18.830566,0.000000,0.000000
5.8100,20938,240,0,0,0.032027,0.019849,0.033014,0.000000,0.663378,1.500000,0.000000,0.823733,0.198498,0.447836,1.000000,2.000000,-5.581055,18.610840,0.000000,0.000000
5.8200,20939,240,0,0,0.036403,0.018542,0.078431,0.000000,0.648809,1.500000,0.000000,0.841074,0.200998,0.450336,1.000000,2.000000,-5.734863,18.479004,0.000000,0.000000
5.8300,20940,240,0,0,0.037050,0.015875,0.112404,0.000000,0.634485,1.500000,0.000000,0.862373,0.203498,0.452837,1.000000,2.000000,-5.932617,18.479004,0.000000,0.000000
5.8400,20941,240,0,0,0.037404,0.013591,0.134655,0.000000,0.619641,1.500000,0.000000,0.871264,0.205998,0.455337,1.000000,2.000000,-6.086426,18.413086,0.000000,0.000000
5.8500,20942,240,0,0,0.036988,0.013891,0.148024,0.000000,0.600749,1.500000,0.000000,0.868756,0.208498,0.457837,1.000000,2.000000,-6.174316,18.347168,0.000000,0.000000
5.8600,20943,240,0,0,0.038054,0.013189,0.156463,0.000000,0.578467,1.500000,0.000000,0.920944,0.210998,0.460337,1.000000,2.000000,-6.240234,18.259277,0.000000,0.000000
5.8700,20944,240,0,0,0.038834,0.011543,0.166374,0.000000,0.551811,1.500000,0.000000,1.014371,0.213498,0.462837,1.000000,2.000000,-6.306152,18.171387,0.000000,0.000000
5.8800,20945,240,0,0,0.038008,0.009929,0.171722,0.000000,0.517126,1.500000,0.000000,1.151642,0.215998,0.465337,1.000000,2.000000,-6.372070,18.127441,0.000000,0.000000
5.8900,20946,240,0,0,0.034829,0.015214,0.165319,0.000000,0.472730,1.500000,0.000000,1.314029,0.218498,0.467837,1.000000,2.000000,-6.394043,18.083496,0.000000,0.000000
5.9000,20947,240,0,0,0.033474,0.025772,0.153322,0.005086,0.400424,1.500000,0.011388,1.486872,0.220998,0.470337,1.000000,2.000000,-6.416016,18.039551,0.000000,0.000000
5.9100,20948,240,0,0,0.031053,0.031651,0.139081,0.023380,0.307384,1.500000,0.032767,1.500000,0.223498,0.472837,2.000000,2.000000,-6.437988,17.907715,0.000000,0.000000
5.9200,20949,240,0,0,0.030331,0.034040,0.123079,0.041707,0.193977,1.500000,0.052716,1.500000,0.225998,0.475338,2.000000,2.000000,-6.459961,17.622070,0.000000,0.000000
5.9300,20950,240,0,0,0.034389,0.036553,0.122960,0.057814,0.045689,1.500000,0.070859,1.500000,0.228498,0.477838,2.000000,2.000000,-6.503906,17.226562,0.000000,0.000000
5.9400,20951,240,0,0,0.037598,0.036351,0.137581,0.069575,0.000000,1.500000,0.087645,1.500000,0.230998,0.480338,2.000000,2.000000,-6.547852,16.721191,0.000000,0.000000
5.9500,20952,240,0,0,0.038984,0.035535,0.154810,0.075016,0.000000,1.500000,0.110188,1.500000,0.233498,0.482838,2.000000,2.000000,-6.503906,16.215820,0.000000,0.000000
5.9600,20953,240,0,0,0.037680,0.033759,0.163854,0.075428,0.000000,1.500000,0.134196,1.500000,0.235998,0.485338,2.000000,2.000000,-6.394043,15.754395,0.000000,0.000000
5.9700,20954,240,0,0,0.037943,0.029546,0.165589,0.069147,0.000000,1.500000,0.156165,1.500000,0.238498,0.487838,2.000000,2.000000,-6.174316,15.249023,0.000000,0.000000
5.9800,20955,240,0,0,0.038267,0.028066,0.171093,0.058643,0.000000,1.500000,0.173596,1.500000,0.240998,0.490338,2.000000,2.000000,-5.910645,14.765625,0.000000,0.000000
5.9900,20956,240,0,0,0.037487,0.030168,0.170601,0.054559,0.000000,1.500000,0.186391,1.500000,0.243498,0.492838,2.000000,2.000000,-5.581055,14.216309,0.000000,0.000000
6.0000,20957,240,0,0,0.037932,0.032232,0.171537,0.056523,0.000000,1.500000,0.195507,1.500000,0.245998,0.495339,2.000000,2.000000,-5.163574,13.601074,0.000000,0.000000
6.0100,20958,240,0,0,0.035747,0.032718,0.168012,0.060362,0.000000,1.500000,0.201537,1.500000,0.248498,0.497839,2.000000,2.000000,-4.636230,12.963867,0.000000,0.000000
6.0200,20959,240,0,0,0.033256,0.032236,0.155390,0.062284,0.000000,1.500000,0.208959,1.500000,0.250998,0.500339,2.000000,2.000000,-3.999023,12.238770,0.000000,0.000000
6.0300,20960,240,0,0,0.030712,0.031068,0.138894,0.061959,0.000000,1.500000,0.217196,1.500000,0.253498,0.502839,2.000000,2.000000,-3.229980,11.469727,0.000000,0.000000
6.0400,20961,240,0,0,0.029299,0.030007,0.120863,0.058905,0.000000,1.500000,0.227598,1.500000,0.255998,0.505338,2.000000,2.000000,-2.329102,10.722656,0.000000,0.000000
6.0500,20962,240,0,0,0.029617,0.028675,0.108971,0.054464,0.000000,1.500000,0.238540,1.500000,0.258498,0.507838,2.000000,2.000000,-1.340332,9.953613,0.000000,0.000000
6.0600,20963,240,0,0,0.029728,0.027123,0.103579,0.049164,0.000000,1.500000,0.250156,1.500000,0.260998,0.510338,2.000000,2.000000,-0.285645,9.206543,0.000000,0.000000
6.0700,20964,240,0,0,0.027404,0.024611,0.094915,0.041319,0.000000,1.401945,0.259837,1.500000,0.263498,0.512838,2.000000,2.000000,0.791016,8.503418,0.000000,0.000000
6.0800,20965,240,0,0,0.030988,0.023250,0.090542,0.032800,0.000000,1.252741,0.268655,1.500000,0.265998,0.515338,2.000000,2.000000,1.955566,7.844238,0.000000,0.000000
6.0900,20966,240,0,0,0.040068,0.021337,0.117469,0.024390,0.000000,1.128649,0.276583,1.500000,0.268499,0.517837,2.000000,2.000000,3.142090,7.163086,0.000000,0.000000
6.1000,20967,240,0,0,0.046905,0.019592,0.165264,0.015172,0.000000,1.022562,0.284947,1.500000,0.270999,0.520337,2.000000,2.000000,4.372559,6.481934,0.000000,0.000000
6.1100,20968,240,0,0,0.050368,0.021877,0.212714,0.011365,0.000000,0.929003,0.291950,1.500000,0.273499,0.522837,2.000000,2.000000,5.603027,5.756836,0.000000,0.000000
6.1200,20969,240,0,0,0.049583,0.022704,0.244757,0.012268,0.000000,0.840705,0.297772,1.500000,0.275999,0.525337,2.000000,2.000000,6.877441,5.009766,0.000000,0.000000
6.1300,20970,240,0,0,0.045653,0.023302,0.252764,0.013270,0.000000,0.762460,0.302467,1.500000,0.278499,0.527837,2.000000,2.000000,8.129883,4.240723,0.000000,0.000000
6.1400,20971,240,0,0,0.042109,0.022927,0.241677,0.014651,0.000000,0.693913,0.306768,1.500000,0.280999,0.530337,2.000000,2.000000,9.338379,3.427734,0.000000,0.000000
6.1500,20972,240,0,0,0.041989,0.021961,0.230073,0.013368,0.000000,0.630180,0.310604,1.500000,0.283499,0.532836,2.000000,2.000000,10.524902,2.614746,0.000000,0.000000
6.1600,20973,240,0,0,0.041757,0.020946,0.223019,0.010872,0.000000,0.573170,0.314443,1.500000,0.285999,0.535336,2.000000,2.000000,11.667480,1.735840,0.000000,0.000000
6.1700,20974,240,0,0,0.041016,0.018905,0.216694,0.006933,0.000000,0.519652,0.319279,1.500000,0.288499,0.537836,2.000000,2.000000,12.788086,0.856934,0.000000,0.000000
6.1800,20975,240,0,0,0.037649,0.017092,0.204555,0.004151,0.000000,0.474146,0.322556,1.500000,0.291000,0.540336,2.000000,2.000000,13.886719,0.000000,0.000000,0.000000
6.1900,20976,240,0,0,0.035889,0.017753,0.182939,0.002485,0.000000,0.434137,0.326479,1.500000,0.293500,0.542836,2.000000,2.000000,14.963379,-0.878906,0.000000,0.000000
6.2000,20977,240,0,0,0.043788,0.017555,0.188646,0.001488,0.000000,0.396360,0.330138,1.500000,0.296000,0.545335,2.000000,2.000000,16.040039,-1.779785,0.000000,0.000000
6.2100,20978,240,0,0,0.050357,0.016065,0.221846,0.000891,0.000000,0.361822,0.334279,1.500000,0.298500,0.547835,2.000000,2.000000,17.116699,-2.658691,0.000000,0.000000
6.2200,20979,240,0,0,0.052782,0.015546,0.257524,0.000533,0.000000,0.328433,0.339346,1.500000,0.301000,0.550335,3.000000,2.000000,18.237305,-3.581543,0.000000,0.000000
6.2300,20980,240,0,0,0.050068,0.012332,0.277065,0.000319,0.000000,0.297682,0.344317,1.500000,0.303500,0.552835,3.000000,2.000000,19.379883,-4.504395,0.000000,0.000000
6.2400,20981,240,0,0,0.046452,0.009422,0.273055,0.000191,0.000000,0.272381,0.349594,1.500000,0.306000,0.555335,3.000000,2.000000,20.522461,-5.427246,0.000000,0.000000
6.2500,20982,240,0,0,0.050830,0.007611,0.273361,0.000115,0.000000,0.242297,0.356451,1.500000,0.308500,0.557835,3.000000,2.000000,21.687012,-6.350098,0.000000,0.000000
6.2600,20983,240,0,0,0.057724,0.007584,0.299883,0.000069,0.000000,0.212778,0.361274,1.500000,0.311001,0.560334,3.000000,2.000000,22.895508,-7.250977,0.000000,0.000000
6.2700,20984,240,0,0,0.062460,0.006057,0.337599,0.000041,0.000000,0.188496,0.368532,1.500000,0.313501,0.562834,3.000000,2.000000,24.104004,-8.173828,0.000000,0.000000
6.2800,20985,240,0,0,0.065601,0.005369,0.374918,0.000025,0.000000,0.165567,0.377556,1.500000,0.316001,0.565334,3.000000,2.000000,25.378418,-9.096680,0.000000,0.000000
6.2900,20987,240,0,0,0.063894,0.005679,0.416962,0.000009,0.000000,0.124242,0.401300,1.500000,0.321001,0.570334,3.000000,2.000000,27.905273,-10.832520,0.000000,0.000000
6.3000,20988,240,0,0,0.059684,0.006412,0.410798,0.000005,0.000000,0.108395,0.415836,1.500000,0.323501,0.572833,3.000000,2.000000,29.157715,-11.667480,0.000000,0.000000
6.3100,20989,240,0,0,0.054523,0.007290,0.387565,0.000003,0.000000,0.090489,0.433993,1.500000,0.326001,0.575333,3.000000,2.000000,30.432129,-12.502441,0.000000,0.000000
6.3200,20990,240,0,0,0.054274,0.005887,0.363476,0.000002,0.000000,0.075418,0.454597,1.500000,0.328501,0.577833,3.000000,2.000000,31.662598,-13.315430,0.000000,0.000000
6.3300,20991,240,0,0,0.056279,0.006254,0.355884,0.000001,0.000000,0.060671,0.473805,1.500000,0.331001,0.580333,3.000000,2.000000,32.893066,-14.062500,0.000000,0.000000
6.3400,20992,240,0,0,0.055746,0.009518,0.353334,0.000001,0.000000,0.047319,0.495791,1.500000,0.333502,0.582833,3.000000,2.000000,34.123535,-14.765625,0.000000,0.000000
6.3500,20993,240,0,0,0.053877,0.011823,0.346608,0.000000,0.000000,0.033308,0.516738,1.500000,0.336002,0.585333,3.000000,2.000000,35.375977,-15.424805,0.000000,0.000000
6.3600,20994,240,0,0,0.050357,0.012226,0.331641,0.000000,0.000000,0.018456,0.538635,1.500000,0.338502,0.587832,3.000000,2.000000,36.606445,-16.040039,0.000000,0.000000
6.3700,20995,240,0,0,0.046112,0.012488,0.306959,0.000000,0.000000,0.004787,0.558659,1.500000,0.341002,0.590332,3.000000,2.000000,37.814941,-16.655273,0.000000,0.000000
6.3800,20996,240,0,0,0.042794,0.012810,0.276565,0.000000,0.000000,0.000000,0.578655,1.500000,0.343502,0.592832,3.000000,2.000000,39.001465,-17.248535,0.000000,0.000000
6.3900,20997,240,0,0,0.041099,0.013460,0.250173,0.000000,0.000000,0.000000,0.597112,1.500000,0.346002,0.595332,3.000000,2.000000,40.166016,-17.819824,0.000000,0.000000
6.4000,20998,240,0,0,0.038087,0.012987,0.225709,0.000000,0.000000,0.000000,0.614123,1.500000,0.348502,0.597832,3.000000,2.000000,41.308594,-18.369141,0.000000,0.000000
6.4100,20999,240,0,0,0.032690,0.013715,0.194140,0.000000,0.000000,0.000000,0.630580,1.500000,0.351002,0.600331,3.000000,2.000000,42.451172,-18.874512,0.000000,0.000000
6.4200,21000,240,0,0,0.025650,0.017022,0.149679,0.000000,0.000000,0.000000,0.645921,1.500000,0.353503,0.602831,3.000000,2.000000,43.549805,-19.357910,0.000000,0.000000
6.4300,21001,240,0,0,0.019527,0.020826,0.096850,0.000406,0.000000,0.000000,0.660694,1.500000,0.356003,0.605331,3.000000,2.000000,44.560547,-19.797363,0.000000,0.000000
6.4400,21002,240,0,0,0.018223,0.022700,0.057988,0.004510,0.000000,0.000000,0.674015,1.500000,0.358503,0.607831,3.000000,2.000000,45.571289,-20.214844,0.000000,0.000000
6.4500,21003,240,0,0,0.017381,0.025272,0.034719,0.011388,0.000000,0.000000,0.685293,1.500000,0.361003,0.610331,3.000000,2.000000,46.494141,-20.610352,0.000000,0.000000
6.4600,21004,240,0,0,0.016687,0.026812,0.020788,0.020222,0.000000,0.000000,0.695497,1.500000,0.363503,0.612831,3.000000,2.000000,47.351074,-20.983887,0.000000,0.000000
6.4700,21005,240,0,0,0.013848,0.027115,0.012446,0.026581,0.000000,0.000000,0.703637,1.500000,0.366003,0.615330,3.000000,2.000000,48.120117,-21.247559,0.000000,0.000000
6.4800,21006,240,0,0,0.014088,0.031432,0.007452,0.035997,0.000000,0.000000,0.711401,1.500000,0.368503,0.617830,3.000000,2.000000,48.779297,-21.423340,0.000000,0.000000
6.4900,21007,240,0,0,0.018956,0.036334,0.004462,0.052014,0.000000,0.000000,0.718050,1.500000,0.371003,0.620330,3.000000,2.000000,49.350586,-21.577148,0.000000,0.000000
6.5000,21008,240,0,0,0.029780,0.039615,0.022052,0.069836,0.000000,0.000000,0.723639,1.500000,0.373503,0.622830,3.000000,2.000000,49.833984,-21.708984,0.000000,0.000000
6.5100,21009,240,0,0,0.045420,0.041165,0.085811,0.085188,0.000000,0.000000,0.728620,1.500000,0.376004,0.625330,3.000000,2.000000,50.229492,-21.730957,0.000000,0.000000
6.5200,21010,240,0,0,0.061152,0.040108,0.187417,0.094476,0.000000,0.000000,0.731818,1.500000,0.378504,0.627829,3.000000,2.000000,50.559082,-21.708984,0.000000,0.000000
6.5300,21011,240,0,0,0.075468,0.037279,0.305753,0.095837,0.000000,0.000000,0.733518,1.500000,0.381004,0.630329,3.000000,2.000000,50.734863,-21.687012,0.000000,0.000000
6.5400,21012,240,0,0,0.086194,0.033187,0.424737,0.088557,0.000000,0.000000,0.730804,1.500000,0.383504,0.632829,3.000000,2.000000,50.800781,-21.665039,0.000000,0.000000
6.5500,21013,240,0,0,0.092382,0.029937,0.527149,0.076422,0.000000,0.000000,0.727750,1.500000,0.386004,0.635329,3.000000,2.000000,50.866699,-21.643066,0.000000,0.000000
6.5600,21014,240,0,0,0.094788,0.026104,0.603602,0.062107,0.000000,0.000000,0.724122,1.500000,0.388504,0.637829,3.000000,2.000000,50.888672,-21.643066,0.000000,0.000000
6.5700,21015,240,0,0,0.094534,0.021268,0.652362,0.043821,0.000000,0.000000,0.718625,1.500000,0.391004,0.640329,3.000000,2.000000,50.910645,-21.665039,0.000000,0.000000
6.5800,21016,240,0,0,0.090998,0.017643,0.672492,0.026522,0.000000,0.000000,0.710623,1.500000,0.393504,0.642828,3.000000,2.000000,50.866699,-21.730957,0.000000,0.000000
6.5900,21017,240,0,0,0.085968,0.013294,0.667094,0.015880,0.000000,0.000000,0.703608,1.500000,0.396004,0.645328,3.000000,2.000000,50.756836,-21.862793,0.000000,0.000000
6.6000,21018,240,0,0,0.081089,0.010089,0.643991,0.009508,0.000000,0.000000,0.696108,1.500000,0.398505,0.647828,3.000000,2.000000,50.559082,-22.060547,0.000000,0.000000
6.6100,21019,240,0,0,0.075576,0.008469,0.610036,0.005693,0.000000,0.000000,0.688447,1.500000,0.401005,0.650328,3.000000,2.000000,50.317383,-22.302246,0.000000,0.000000
6.6200,21020,240,0,0,0.071753,0.006922,0.571469,0.003408,0.000000,0.000000,0.677273,1.500000,0.403505,0.652828,3.000000,2.000000,50.075684,-22.609863,0.000000,0.000000
6.6300,21021,240,0,0,0.068087,0.006248,0.535374,0.002041,0.000000,0.000000,0.665146,1.500000,0.406005,0.655327,3.000000,2.000000,49.790039,-22.939453,0.000000,0.000000
6.6400,21022,240,0,0,0.062635,0.006521,0.495212,0.001222,0.000000,0.000000,0.655037,1.500000,0.408505,0.657827,3.000000,2.000000,49.438477,-23.203125,0.000000,0.000000
6.6500,21023,240,0,0,0.058025,0.006591,0.451110,0.000732,0.000000,0.000000,0.648194,1.500000,0.411005,0.660327,3.000000,2.000000,49.086914,-23.422852,0.000000,0.000000
6.6600,21024,240,0,0,0.052989,0.006788,0.406851,0.000438,0.000000,0.000000,0.643927,1.500000,0.413505,0.662827,3.000000,2.000000,48.735352,-23.686523,0.000000,0.000000
6.6700,21025,240,0,0,0.046478,0.007550,0.356655,0.000262,0.000000,0.000000,0.639178,1.500000,0.416005,0.665327,3.000000,2.000000,48.339844,-23.994141,0.000000,0.000000
6.6800,21026,240,0,0,0.040909,0.006560,0.302946,0.000157,0.000000,0.000000,0.634188,1.500000,0.418506,0.667827,3.000000,2.000000,48.010254,-24.301758,0.000000,0.000000
6.6900,21027,240,0,0,0.035337,0.005234,0.249748,0.000094,0.000000,0.000000,0.628350,1.500000,0.421006,0.670326,3.000000,2.000000,47.724609,-24.499512,0.000000,0.000000
6.7000,21028,240,0,0,0.029204,0.004653,0.194837,0.000056,0.000000,0.000000,0.623167,1.500000,0.423506,0.672826,3.000000,2.000000,47.460938,-24.675293,0.000000,0.000000
6.7100,21029,240,0,0,0.024237,0.004461,0.140084,0.000034,0.000000,0.000000,0.620029,1.500000,0.426006,0.675326,3.000000,2.000000,47.219238,-24.807129,0.000000,0.000000
6.7200,21030,240,0,0,0.021535,0.004628,0.093684,0.000020,0.000000,0.000000,0.617987,1.500000,0.428506,0.677826,3.000000,2.000000,46.977539,-24.938965,0.000000,0.000000
6.7300,21031,240,0,0,0.020259,0.004575,0.058849,0.000012,0.000000,0.000000,0.615765,1.500000,0.431006,0.680326,3.000000,2.000000,46.691895,-25.048828,0.000000,0.000000
6.7400,21032,240,0,0,0.020052,0.003734,0.035344,0.000007,0.000000,0.000000,0.614848,1.500000,0.433506,0.682826,3.000000,2.000000,46.362305,-25.158691,0.000000,0.000000
6.7500,21033,240,0,0,0.020995,0.003481,0.023749,0.000004,0.000000,0.000000,0.615128,1.500000,0.436006,0.685325,3.000000,2.000000,46.010742,-25.268555,0.000000,0.000000
6.7600,21034,240,0,0,0.021707,0.003738,0.019685,0.000003,0.000000,0.000000,0.613405,1.500000,0.438506,0.687825,3.000000,2.000000,45.637207,-25.378418,0.000000,0.000000
6.7700,21035,240,0,0,0.023334,0.004048,0.022025,0.000002,0.000000,0.000000,0.613473,1.500000,0.441007,0.690325,3.000000,2.000000,45.263672,-25.488281,0.000000,0.000000
6.7800,21037,240,0,0,0.023543,0.005183,0.032212,0.000001,0.000000,0.000000,0.614704,1.500000,0.446007,0.695325,3.000000,2.000000,44.362793,-25.708008,0.000000,0.000000
6.7900,21038,240,0,0,0.022565,0.005168,0.030481,0.000000,0.000000,0.000000,0.616456,1.500000,0.448507,0.697824,3.000000,2.000000,43.857422,-25.817871,0.000000,0.000000
6.8000,21039,240,0,0,0.021356,0.005756,0.025406,0.000000,0.000000,0.000000,0.618910,1.500000,0.451007,0.700324,3.000000,2.000000,43.308105,-25.949707,0.000000,0.000000
6.8100,21040,240,0,0,0.019222,0.006508,0.017031,0.000000,0.000000,0.000000,0.621378,1.500000,0.453507,0.702824,3.000000,2.000000,42.846680,-26.059570,0.000000,0.000000
6.8200,21041,240,0,0,0.016102,0.007102,0.010197,0.000000,0.000000,0.000000,0.625759,1.500000,0.456007,0.705324,3.000000,2.000000,42.495117,-26.169434,0.000000,0.000000
6.8300,21042,240,0,0,0.012716,0.007592,0.006105,0.000000,0.000000,0.000000,0.631253,1.500000,0.458507,0.707824,3.000000,2.000000,42.319336,-26.279297,0.000000,0.000000
6.8400,21043,240,0,0,0.010466,0.007618,0.003656,0.000000,0.000000,0.000000,0.634271,1.500000,0.461008,0.710324,3.000000,2.000000,42.231445,-26.367188,0.000000,0.000000
6.8500,21044,240,0,0,0.010731,0.006797,0.002189,0.000000,0.000000,0.000000,0.632383,1.500000,0.463508,0.712823,3.000000,2.000000,42.165527,-26.455078,0.000000,0.000000
6.8600,21045,240,0,0,0.012221,0.005404,0.001310,0.000000,0.000000,0.000000,0.623011,1.500000,0.466008,0.715323,3.000000,2.000000,42.209473,-26.542969,0.000000,0.000000
6.8700,21046,240,0,0,0.015613,0.004575,0.000785,0.000000,0.000000,0.107394,0.604107,1.500000,0.468508,0.717823,3.000000,2.000000,42.297363,-26.630859,0.000000,0.000000
6.8800,21047,240,0,0,0.018876,0.003869,0.000470,0.000000,0.000000,0.250815,0.575063,1.500000,0.471008,0.720323,3.000000,2.000000,42.297363,-26.740723,0.000000,0.000000
6.8900,21048,240,0,0,0.016644,0.003870,0.000281,0.000000,0.000000,0.416811,0.537392,1.500000,0.473508,0.722823,0.000000,2.000000,42.275391,-26.828613,0.000000,0.000000
6.9000,21049,240,0,0,0.016920,0.004247,0.000168,0.000000,0.000000,0.610403,0.488666,1.500000,0.476008,0.725322,0.000000,2.000000,42.231445,-26.894531,0.000000,0.000000
6.9100,21050,240,0,0,0.021303,0.004085,0.001184,0.000000,0.051676,0.818801,0.419522,1.500000,0.478508,0.727822,0.000000,2.000000,41.967773,-26.938477,0.000000,0.000000
6.9200,21051,240,0,0,0.028250,0.003487,0.021994,0.000000,0.151993,1.033800,0.336805,1.500000,0.481008,0.730322,0.000000,2.000000,41.484375,-26.982422,0.000000,0.000000
6.9300,21052,240,0,0,0.037485,0.003186,0.064722,0.000000,0.270735,1.239346,0.236300,1.500000,0.483509,0.732822,0.000000,2.000000,40.891113,-27.004395,0.000000,0.000000
6.9400,21053,240,0,0,0.048396,0.003782,0.130583,0.000000,0.408785,1.426644,0.146167,1.500000,0.486009,0.735322,0.000000,2.000000,40.319824,-27.048340,0.000000,0.000000
6.9500,21054,240,0,0,0.058104,0.007271,0.210936,0.000000,0.556177,1.500000,0.079038,1.500000,0.002051,0.737822,1.000000,2.000000,39.682617,-27.114258,-0.120000,0.000000
6.9600,21055,240,0,0,0.068187,0.007888,0.298366,0.000000,0.699655,1.500000,0.019677,1.500000,0.007179,0.740321,1.000000,2.000000,38.957520,-27.224121,-0.420000,0.000000
6.9700,21056,240,0,0,0.075591,0.008444,0.384903,0.000000,0.833129,1.500000,0.000000,1.500000,0.012308,0.742821,1.000000,2.000000,38.056641,-27.268066,-0.720000,0.000000
6.9800,21057,240,0,0,0.080043,0.012295,0.455901,0.000000,0.961237,1.500000,0.000000,1.500000,0.017436,0.745321,1.000000,2.000000,36.979980,-27.202148,-1.020000,0.000000
6.9900,21058,240,0,0,0.082650,0.020061,0.513764,0.000016,1.076240,1.500000,0.000000,1.500000,0.022564,0.747821,1.000000,2.000000,35.859375,-27.070312,-1.319999,0.000000
7.0000,21059,240,0,0,0.082513,0.023780,0.551108,0.005470,1.183812,1.500000,0.000000,1.500000,0.027692,0.750321,1.000000,2.000000,34.892578,-26.916504,-1.619999,0.000000
7.0100,21060,240,0,0,0.080242,0.026132,0.567974,0.014231,1.284062,1.500000,0.000000,1.500000,0.032820,0.752820,1.000000,2.000000,34.013672,-26.608887,-1.919999,0.000000
7.0200,21061,240,0,0,0.077136,0.027803,0.567087,0.023823,1.370995,1.500000,0.000000,1.500000,0.037949,0.755320,1.000000,2.000000,33.024902,-26.147461,-2.219998,0.000000
7.0300,21062,240,0,0,0.072590,0.026327,0.551556,0.029280,1.455297,1.500000,0.000000,1.500000,0.043077,0.757820,1.000000,2.000000,31.970215,-25.642090,-2.519998,0.000000
7.0400,21063,240,0,0,0.070125,0.026900,0.527587,0.030596,1.500000,1.500000,0.000000,1.500000,0.048205,0.760320,1.000000,2.000000,30.981445,-25.048828,-2.819998,0.000000
7.0500,21064,240,0,0,0.069915,0.030297,0.510267,0.037339,1.500000,1.500000,0.000000,1.407106,0.053333,0.762820,1.000000,2.000000,29.948730,-24.389648,-3.119998,0.000000
7.0600,21065,240,0,0,0.067818,0.030814,0.494975,0.045007,1.500000,1.500000,0.000000,1.302638,0.058461,0.765320,1.000000,2.000000,28.872070,-23.598633,-3.419997,0.000000
7.0700,21066,240,0,0,0.064641,0.027839,0.475610,0.046237,1.500000,1.500000,0.000000,1.212767,0.063590,0.767819,1.000000,2.000000,27.795410,-22.741699,-3.719997,0.000000
7.0800,21067,240,0,0,0.059956,0.025788,0.446971,0.041007,1.500000,1.500000,0.000000,1.143490,0.068718,0.770319,1.000000,2.000000,26.784668,-21.774902,-4.000000,0.000000
7.0900,21068,240,0,0,0.057065,0.027702,0.416445,0.038484,1.500000,1.500000,0.000000,1.091966,0.073846,0.772819,1.000000,2.000000,25.686035,-20.742188,-4.000000,0.000000
7.1000,21069,240,0,0,0.052461,0.030824,0.383155,0.043204,1.500000,1.500000,0.000000,1.049854,0.078974,0.775319,1.000000,2.000000,24.631348,-19.643555,-4.000000,0.000000
7.1100,21070,240,0,0,0.049219,0.031969,0.347151,0.050412,1.500000,1.500000,0.000000,1.013403,0.084103,0.777819,1.000000,2.000000,23.708496,-18.500977,-4.000000,0.000000
